3200.54	-2.06248
3199.33	10.3124
3198.12	12.3728
3196.9	8.24714
3195.69	12.3686
3194.48	0
3193.27	14.4252
3192.05	16.4832
3190.84	6.18014
3189.62	16.4776
3188.41	20.5935
3187.2	-2.05901
3185.98	37.0559
3184.77	18.5248
3183.55	20.5797
3182.34	20.5762
3181.12	8.22909
3179.91	12.3416
3178.69	20.5658
3177.48	18.5061
3176.26	16.4471
3175.04	-2.05554
3173.83	24.6623
3172.61	4.10969
3171.39	24.654
3170.18	16.4332
3168.96	20.5381
3167.74	8.21384
3166.52	4.10622
3165.31	39.0026
3164.09	-18.4718
3162.87	6.15622
3161.65	0
3160.43	28.7193
3159.21	14.3572
3157.99	24.6083
3156.78	2.05034
3155.56	10.25
3154.34	2.04965
3153.12	18.4437
3151.9	-4.09792
3150.68	20.4861
3149.46	0
3148.23	38.9105
3147.01	20.4757
3145.79	16.3778
3144.57	32.7501
3143.35	24.5584
3142.13	4.09238
3140.91	24.5502
3139.68	12.273
3138.46	12.2709
3137.24	12.2689
3136.02	24.5336
3134.79	24.5294
3133.57	-4.08755
3132.35	2.04343
3131.12	32.6893
3129.9	18.3846
3128.67	0
3127.45	6.12614
3126.23	28.5838
3125	26.5376
3123.78	30.6152
3122.55	28.5693
3121.33	20.4032
3120.1	28.5597
3118.87	18.3567
3117.65	16.3143
3116.42	-12.2336
3115.2	8.15438
3113.97	16.306
3112.74	28.5307
3111.52	20.3756
3110.29	22.4094
3109.06	12.2212
3107.83	14.2557
3106.61	30.5427
3105.38	8.14335
3104.15	8.14197
3102.92	10.1757
3101.69	14.2436
3100.46	8.13784
3099.23	28.4776
3098.01	22.3715
3096.78	4.06685
3095.55	24.397
3094.32	32.5238
3093.09	28.4535
3091.86	12.1923
3090.63	16.2536
3089.4	12.1882
3088.16	16.2481
3086.93	18.2761
3085.7	0
3084.47	18.2699
3083.24	20.2964
3082.01	8.11719
3080.77	14.2027
3079.54	20.2861
3078.31	8.11306
3077.08	22.3071
3075.84	24.3309
3074.61	16.2179
3073.38	6.08067
3072.14	8.10619
3070.91	10.131
3069.68	40.5172
3068.44	12.1531
3067.21	-4.05035
3065.97	36.4469
3064.74	12.1469
3063.5	18.2173
3062.27	12.1428
3061.03	16.1877
3059.8	6.06934
3058.56	14.1594
3057.32	36.4037
3056.09	32.3533
3054.85	18.1957
3053.61	18.1926
3052.38	8.08422
3051.14	14.145
3049.9	30.3055
3048.66	24.2403
3047.43	28.2756
3046.19	28.2708
3044.95	6.05699
3043.71	20.1865
3042.47	-6.05494
3041.23	26.2336
3040	8.07051
3038.76	0
3037.52	42.3558
3036.28	8.0664
3035.04	-6.04877
3033.8	12.0955
3032.56	34.2647
3031.32	20.1523
3030.08	8.05955
3028.83	26.1891
3027.59	16.1136
3026.35	0
3025.11	34.2298
3023.87	16.1054
3022.63	2.01283
3021.38	24.1499
3020.14	12.0729
3018.9	2.01181
3017.66	18.1032
3016.41	18.1001
3015.17	10.0539
3013.93	10.0522
3012.68	24.1212
3011.44	14.0683
3010.19	32.1506
3008.95	14.0635
3007.71	26.1135
3006.46	10.0419
3005.22	36.1448
3003.97	18.0693
3002.73	4.01473
3001.48	4.01404
3000.23	28.0935
2998.99	16.0507
2997.74	0
2996.49	26.0735
2995.25	16.0425
2994	0
2992.75	-2.00463
2991.51	20.0429
2990.26	26.0513
2989.01	4.00722
2987.76	6.0098
2986.52	30.0439
2985.27	6.00776
2984.02	4.00449
2982.77	20.019
2981.52	22.0172
2980.27	18.011
2979.02	10.0044
2977.77	8.00216
2976.52	32.0032
2975.27	0
2974.02	13.9966
2972.77	19.9918
2971.52	7.99534
2970.27	3.99699
2969.02	39.9631
2967.77	3.99563
2966.52	0
2965.26	15.9771
2964.01	29.9519
2962.76	1.99645
2961.51	19.9611
2960.25	7.98309
2959	5.98629
2957.75	29.9264
2956.5	23.937
2955.24	27.9217
2953.99	11.9644
2952.73	23.9248
2951.48	21.9273
2950.23	21.9235
2948.97	-5.97813
2947.72	17.9313
2946.46	7.96812
2945.21	13.9418
2943.95	23.8962
2942.7	21.9011
2941.44	5.97201
2940.18	3.98066
2938.93	9.94995
2937.67	43.7723
2936.41	25.861
2935.16	7.95589
2933.9	1.98863
2932.64	17.8946
2931.38	0
2930.13	9.93807
2928.87	7.9491
2927.61	11.9216
2926.35	5.95979
2925.09	9.93128
2923.83	1.98592
2922.58	13.899
2921.32	11.9114
2920.06	13.8943
2918.8	11.9074
2917.54	21.8264
2916.28	29.7582
2915.02	9.91771
2913.76	9.91602
2912.5	29.743
2911.23	9.91263
2909.97	13.8753
2908.71	15.8548
2907.45	9.90755
2906.19	19.8117
2904.93	13.8658
2903.66	31.6879
2902.4	13.8611
2901.14	0
2899.88	9.89738
2898.61	-7.91655
2897.35	19.788
2896.09	1.97846
2894.82	9.89061
2893.56	21.7556
2892.29	13.8421
2891.03	11.8626
2889.76	5.93031
2888.5	29.6465
2887.23	21.737
2885.97	17.7818
2884.7	31.6067
2883.44	21.7259
2882.17	9.8737
2880.9	3.9488
2879.64	25.6628
2878.37	21.711
2877.1	1.97339
2875.84	27.6227
2874.57	5.91814
2873.3	1.97237
2872.04	27.6085
2870.77	21.6887
2869.5	11.8282
2868.23	5.91307
2866.96	11.8241
2865.69	9.85174
2864.42	11.8201
2863.16	15.7574
2861.89	15.7547
2860.62	13.783
2859.35	15.7493
2858.08	11.8099
2856.81	9.83993
2855.54	17.7088
2854.26	19.6731
2852.99	15.7358
2851.72	-7.86654
2850.45	19.663
2849.18	0
2847.91	13.7594
2846.64	11.7917
2845.36	1.96495
2844.09	23.5754
2842.82	13.7499
2841.54	11.7836
2840.27	13.7452
2839	17.6694
2837.72	27.481
2836.45	13.7381
2835.18	-1.96225
2833.9	17.6573
2832.63	15.6927
2831.35	19.6124
2830.08	21.57
2828.8	13.724
2827.53	19.6023
2826.25	13.7193
2824.98	29.3934
2823.7	1.95923
2822.42	13.7122
2821.15	29.3783
2819.87	15.6657
2818.59	17.6209
2817.32	15.6603
2816.04	15.6577
2814.76	5.87061
2813.48	3.91307
2812.21	27.3868
2810.93	9.77931
2809.65	27.3774
2808.37	23.4623
2807.09	9.77427
2805.81	19.5452
2804.53	5.86255
2803.25	13.6769
2801.97	15.6281
2800.69	3.90635
2799.41	23.4341
2798.13	23.43
2796.85	-5.8565
2795.57	5.8555
2794.29	1.9515
2793.01	11.707
2791.73	9.75413
2790.45	15.6039
2789.17	9.75077
2787.88	15.5985
2786.6	21.4443
2785.32	29.2372
2784.04	29.2322
2782.75	17.5363
2781.47	11.6889
2780.19	-1.94781
2778.9	3.89494
2777.62	27.2599
2776.33	5.8404
2775.05	15.5717
2773.76	7.78452
2772.48	25.2953
2771.19	15.5637
2769.91	7.7805
2768.62	19.4479
2767.34	15.5556
2766.05	13.6088
2764.77	23.3254
2763.48	27.2083
2762.19	29.1468
2760.91	25.2562
2759.62	15.5396
2758.33	36.9001
2757.04	9.70889
2755.76	46.5946
2754.47	44.6455
2753.18	15.5262
2751.89	29.1066
2750.6	19.4011
2749.31	11.6386
2748.03	0
2746.74	27.1474
2745.45	17.4489
2744.16	25.1996
2742.87	60.0811
2741.58	36.8175
2740.29	25.1866
2739	27.1194
2737.71	44.5456
2736.41	30.9829
2735.12	27.1053
2733.83	54.2013
2732.54	42.5794
2731.25	36.7668
2729.96	25.1519
2728.66	52.2295
2727.37	50.2864
2726.08	54.1452
2724.79	36.7351
2723.49	56.0596
2722.2	61.8482
2720.9	54.1079
2719.61	59.8948
2718.32	92.7243
2717.02	90.7769
2715.73	81.1057
2714.43	102.33
2713.14	121.617
2711.84	90.7142
2710.55	115.785
2709.25	131.201
2707.96	127.32
2706.66	146.585
2705.36	175.486
2704.07	202.449
2702.77	239.042
2701.47	242.855
2700.17	273.647
2698.88	323.695
2697.58	317.86
2696.28	362.105
2694.98	335.082
2693.69	381.234
2692.39	408.12
2691.09	409.974
2689.79	473.409
2688.49	454.086
2687.19	436.694
2685.89	434.695
2684.59	457.697
2683.29	411.471
2681.99	455.616
2680.69	395.952
2679.39	384.353
2678.09	355.465
2676.79	311.218
2675.48	282.353
2674.18	247.736
2672.88	234.253
2671.58	191.977
2670.28	170.83
2668.97	163.124
2667.67	117.045
2666.37	132.373
2665.06	117.005
2663.76	109.313
2662.46	74.7804
2661.15	90.1044
2659.85	65.1706
2658.54	74.7416
2657.24	49.8191
2655.93	68.9684
2654.63	32.5627
2653.32	57.4537
2652.02	63.1881
2650.71	45.9471
2649.41	38.2826
2648.1	40.1897
2646.79	32.5289
2645.49	32.5233
2644.18	38.2561
2642.87	26.7746
2641.56	43.9792
2640.26	21.0299
2638.95	19.1148
2637.64	15.2892
2636.33	17.1973
2635.02	26.7468
2633.71	19.1015
2632.41	9.5491
2631.1	17.1854
2629.79	24.8191
2628.48	20.9971
2627.17	15.268
2625.86	22.898
2624.55	3.81567
2623.24	11.445
2621.93	24.7932
2620.61	5.72052
2619.3	28.5977
2617.99	7.62472
2616.68	24.776
2615.37	0
2614.06	30.483
2612.74	24.7631
2611.43	17.1407
2610.12	30.4671
2608.8	3.80773
2607.49	5.7106
2606.18	15.2256
2604.86	22.8345
2603.55	17.1229
2602.24	3.80442
2600.92	34.2339
2599.61	17.114
2598.29	17.111
2596.98	13.3062
2595.66	9.5028
2594.34	26.6032
2593.03	-1.8999
2591.71	13.297
2590.4	20.8916
2589.08	22.7869
2587.76	18.9858
2586.45	11.3895
2585.13	11.3875
2583.81	22.7711
2582.49	5.69178
2581.18	20.8662
2579.86	20.8626
2578.54	13.2739
2577.22	15.1675
2575.9	15.1649
2574.58	13.267
2573.26	3.7899
2571.94	17.0516
2570.62	13.2601
2569.3	7.57586
2567.98	-5.6809
2566.66	18.933
2565.34	5.67893
2564.02	-3.78529
2562.7	18.9232
2561.38	5.67596
2560.06	17.0249
2558.74	-5.67399
2557.41	17.019
2556.09	15.1254
2554.77	11.342
2553.45	7.56005
2552.12	3.77937
2550.8	7.55742
2549.48	28.3354
2548.15	-5.66609
2546.83	20.772
2545.51	15.1043
2544.18	7.55084
2542.86	18.8738
2541.53	11.3223
2540.21	7.54689
2538.88	3.77279
2537.56	16.9746
2536.23	9.42869
2534.9	3.77082
2533.58	-1.88508
2532.25	5.65425
2530.92	16.9598
2529.6	13.1887
2528.27	7.53506
2526.94	37.6688
2525.62	1.88311
2524.29	9.41391
2522.96	13.1772
2521.63	16.9391
2520.3	0
2518.97	5.6444
2517.65	13.168
2516.32	16.9273
2514.99	28.2073
2513.66	1.88016
2512.33	28.1974
2511	22.554
2509.67	13.1542
2508.34	13.1519
2507.01	1.87852
2505.67	-1.87819
2504.34	16.9007
2503.01	16.8978
2501.68	18.772
2500.35	-1.87688
2499.02	20.642
2497.68	39.4007
2496.35	9.37947
2495.02	28.1335
2493.68	3.75048
2492.35	1.87491
2491.02	14.9967
2489.68	22.4911
2488.35	28.1089
2487.01	14.9888
2485.68	29.9724
2484.35	13.1106
2483.01	13.1083
2481.68	9.36147
2480.34	13.1038
2479	18.7164
2477.67	7.48525
2476.33	18.7098
2475	26.1892
2473.66	20.5736
2472.32	24.31
2470.98	16.8271
2469.65	31.7789
2468.31	35.5114
2466.97	22.4244
2465.63	22.4204
2464.3	24.2846
2462.96	9.33858
2461.62	11.2043
2460.28	28.0059
2458.94	31.7345
2457.6	24.2633
2456.26	33.5895
2454.92	20.5233
2453.58	29.8469
2452.24	18.651
2450.9	20.5125
2449.56	22.3734
2448.22	31.6901
2446.88	7.45519
2445.53	35.406
2444.19	27.9472
2442.85	18.6282
2441.51	-7.44997
2440.17	18.6217
2438.82	-3.72368
2437.48	9.30758
2436.14	20.4731
2434.79	16.7478
2433.45	7.44215
2432.11	18.6021
2430.76	11.1593
2429.42	-1.85956
2428.07	3.71847
2426.73	22.3069
2425.38	0
2424.04	18.5826
2422.69	18.5793
2421.35	3.71521
2420	1.85728
2418.65	-11.1417
2417.31	11.1398
2415.96	5.56891
2414.61	16.7038
2413.27	14.8452
2411.92	14.8426
2410.57	3.71
2409.22	11.1281
2407.87	24.1066
2406.53	25.9564
2405.18	-1.8537
2403.83	1.85338
2402.48	27.7958
2401.13	3.70545
2399.78	3.7048
2398.43	-3.70415
2397.08	3.7035
2395.73	31.4742
2394.38	14.8088
2393.03	24.0601
2391.68	3.7009
2390.33	0
2388.98	-14.7984
2387.62	11.0969
2386.27	5.54745
2384.92	0
2383.57	-9.24251
2382.21	5.54453
2380.86	18.4785
2379.51	25.8654
2378.15	0
2376.8	9.23439
2375.45	1.84655
2374.09	25.8472
2372.74	3.69181
2371.38	20.3014
2370.03	5.53577
2368.67	3.68987
2367.32	1.84461
2365.96	-7.37714
2364.61	1.84396
2363.25	14.7491
2361.9	1.84331
2360.54	-7.37195
2359.18	16.584
2357.83	14.7387
2356.47	20.2622
2355.11	0
2353.75	-1.84137
2352.39	14.7284
2351.04	25.7701
2349.68	1.8404
2348.32	9.20036
2346.96	7.359
2345.6	16.5548
2344.24	20.2301
2342.88	-7.35511
2341.52	20.223
2340.16	7.35252
2338.8	11.0268
2337.44	9.18742
2336.08	23.8831
2334.72	-3.67367
2333.36	11.0191
2332	7.34476
2330.64	0
2329.27	5.50663
2327.91	3.67044
2326.55	16.5141
2325.19	25.684
2323.82	3.6685
2322.46	9.16964
2321.1	14.6688
2319.73	-1.83328
2318.37	18.3296
2317	5.49791
2315.64	25.6524
2314.28	16.4879
2312.91	23.8117
2311.55	9.15672
2310.18	10.9861
2308.81	21.9684
2307.45	14.643
2306.08	14.6404
2304.72	5.48919
2303.35	20.1235
2301.98	5.48726
2300.62	-1.82876
2299.25	3.65688
2297.88	18.2812
2296.51	10.9668
2295.15	9.13737
2293.78	5.48145
2292.41	14.6146
2291.04	7.30603
2289.67	10.9571
2288.3	10.9552
2286.93	10.9532
2285.56	9.12609
2284.19	-1.8249
2282.82	16.4212
2281.45	12.7698
2280.08	20.0632
2278.71	7.29443
2277.34	9.11643
2275.97	23.6985
2274.6	1.82264
2273.22	7.28928
2271.85	0
2270.48	5.46503
2269.11	9.10677
2267.73	7.28413
2266.36	16.3864
2264.99	10.9223
2263.61	3.64014
2262.24	18.1975
2260.87	-5.45827
2259.49	20.0101
2258.12	9.09391
2256.74	16.3661
2255.37	3.63628
2253.99	-5.45345
2252.62	18.175
2251.24	21.8061
2249.87	23.6191
2248.49	16.3488
2247.11	7.26484
2245.74	-5.44767
2244.36	12.709
2242.98	3.6305
2241.6	14.5194
2240.23	-7.25842
2238.85	14.5143
2237.47	5.44189
2236.09	16.3228
2234.71	12.6933
2233.33	5.439
2231.96	9.0634
2230.58	12.6865
2229.2	12.6843
2227.82	9.05859
2226.44	9.05699
2225.06	0
2223.68	18.1076
2222.29	-10.8626
2220.91	0
2219.53	16.2882
2218.15	10.8568
2216.77	14.4732
2215.39	3.61767
2214	1.80851
2212.62	0
2211.24	34.3496
2209.86	39.7661
2208.47	-3.61446
2207.09	7.22765
2205.7	7.22637
2204.32	-9.03136
2202.94	-3.6119
2201.55	5.41689
2200.17	16.2478
2198.78	10.8299
2197.4	3.60934
2196.01	-7.21741
2194.63	-1.80403
2193.24	12.626
2191.85	18.0339
2190.47	5.40922
2189.08	25.2385
2187.69	-3.60486
2186.31	-1.80211
2184.92	5.40538
2183.53	10.8088
2182.14	12.6081
2180.75	7.20334
2179.37	0
2177.98	18.002
2176.59	-7.1995
2175.2	8.99778
2173.81	16.1931
2172.42	10.7935
2171.03	10.7916
2169.64	8.9914
2168.25	14.3837
2166.86	-5.39292
2165.47	8.98661
2164.08	12.579
2162.68	12.5768
2161.29	17.9636
2159.9	1.79605
2158.51	12.5701
2157.12	1.79541
2155.72	1.79509
2154.33	-1.79477
2152.94	8.97225
2151.54	10.7648
2150.15	-1.79381
2148.76	7.17398
2147.36	16.1386
2145.97	1.79286
2144.57	7.17015
2143.18	-14.3378
2141.78	3.5838
2140.39	5.37475
2138.99	7.16506
2137.6	23.2823
2136.2	25.0688
2134.8	3.58062
2133.41	16.1099
2132.01	-5.36902
2130.61	-5.36806
2129.22	19.6794
2127.82	17.8872
2126.42	-3.5768
2125.02	16.0927
2123.62	-5.36329
2122.22	8.93722
2120.83	8.93563
2119.43	19.6549
2118.03	-8.93245
2116.63	10.717
2115.23	8.92927
2113.83	12.4988
2112.43	14.2818
2111.03	14.2792
2109.63	16.0613
2108.22	5.3528
2106.82	5.35184
2105.42	-7.13452
2104.02	-1.78331
2102.62	-10.698
2101.21	17.8268
2099.81	0
2098.41	7.12817
2097.01	12.4721
2095.6	-7.12563
2094.2	-1.78109
2092.8	10.6846
2091.39	0
2089.99	10.6808
2088.58	0
2087.18	7.11801
2085.77	-5.33756
2084.37	10.6732
2082.96	5.33566
2081.56	17.7823
2080.15	3.55584
2078.74	-10.6656
2077.34	12.441
2075.93	12.4388
2074.52	10.6599
2073.11	12.4343
2071.71	0
2070.3	7.1028
2068.89	3.55076
2067.48	-10.6504
2066.07	10.6485
2064.66	-5.3233
2063.26	8.87058
2061.85	12.4166
2060.44	21.2818
2059.03	-7.09266
2057.62	12.4099
2056.21	-3.54507
2054.8	15.9499
2053.38	-12.4033
2051.97	15.9443
2050.56	8.85634
2049.15	12.3967
2047.74	14.1651
2046.33	1.77032
2044.91	1.77
2043.5	10.6181
2042.09	14.155
2040.68	10.6143
2039.26	1.76874
2037.85	14.1474
2036.43	-1.76811
2035.02	17.6779
2033.61	0
2032.19	0
2030.78	15.9016
2029.36	1.76653
2027.95	0
2026.53	10.5954
2025.11	15.8902
2023.7	7.06105
2022.28	8.82474
2020.86	3.52926
2019.45	3.52863
2018.03	0
2016.61	7.05474
2015.19	7.05348
2013.78	8.81527
2012.36	8.81369
2010.94	5.28727
2009.52	22.9074
2008.1	12.3325
2006.68	17.6148
2005.26	3.52232
2003.84	0
2002.42	5.28159
2001	1.76022
1999.58	-1.7599
1998.16	12.3171
1996.74	12.3149
1995.32	1.75896
1993.9	10.5518
1992.48	10.55
1991.05	-8.79005
1989.63	15.8193
1988.21	31.6329
1986.79	5.2712
1985.36	14.054
1983.94	14.0515
1982.52	3.51224
1981.09	19.3139
1979.67	15.7994
1978.24	8.77589
1976.82	0
1975.39	17.5455
1973.97	5.2627
1972.54	0
1971.12	17.5361
1969.69	15.7796
1968.27	7.01191
1966.84	24.5373
1965.41	12.2664
1963.99	1.75203
1962.56	14.0138
1961.13	21.0169
1959.7	-8.75546
1958.28	-1.75078
1956.85	24.5065
1955.42	12.251
1953.99	-10.499
1952.56	10.4971
1951.13	12.2444
1949.7	-1.74889
1948.27	10.4915
1946.84	-3.49653
1945.41	0
1943.98	13.9811
1942.55	6.98929
1941.12	13.9761
1939.69	17.467
1938.26	20.9566
1936.83	13.9686
1935.39	15.7118
1933.96	-3.49088
1932.53	-1.74513
1931.1	10.4689
1929.66	19.1895
1928.23	8.72094
1926.8	-3.48775
1925.36	0
1923.93	10.4595
1922.49	10.4576
1921.06	1.74262
1919.62	1.74231
1918.19	-3.48399
1916.75	19.1585
1915.32	8.70684
1913.88	13.9284
1912.45	13.9259
1911.01	1.74043
1909.57	20.8814
1908.14	5.21941
1906.7	10.4369
1905.26	-1.73918
1903.82	15.6498
1902.39	17.3855
1900.95	8.6912
1899.51	1.73793
1898.07	13.9009
1896.63	8.68651
1895.19	-3.47398
1893.75	-1.73668
1892.31	6.94545
1890.87	12.1524
1889.43	-5.20721
1887.99	22.5605
1886.55	15.616
1885.11	-15.6132
1883.67	6.93795
1882.23	8.67088
1880.79	1.73386
1879.34	10.4013
1877.9	24.2653
1876.46	6.93171
1875.02	5.19784
1873.57	13.8584
1872.13	20.7839
1870.69	-5.19504
1869.24	6.92547
1867.8	0
1866.35	12.1152
1864.91	-1.73043
1863.46	3.46024
1862.02	1.72981
1860.57	8.64747
1859.13	3.45837
1857.68	12.1021
1856.23	10.3714
1854.79	19.0107
1853.34	8.63968
1851.89	-5.18287
1850.45	17.2731
1849	-1.727
1847.55	8.63345
1846.1	17.2638
1844.65	15.5346
1843.21	17.2576
1841.76	6.90178
1840.31	15.5262
1838.86	6.89929
1837.41	3.44902
1835.96	-1.7242
1834.51	6.89555
1833.06	17.2358
1831.61	0
1830.16	-13.7836
1828.7	24.117
1827.25	8.61166
1825.8	0
1824.35	6.88684
1822.9	17.214
1821.44	17.2109
1819.99	5.16233
1818.54	0
1817.09	15.4814
1815.63	6.87938
1814.18	0
1812.72	-5.15767
1811.27	6.87565
1809.81	-3.4372
1808.36	15.4646
1806.9	8.5899
1805.45	20.612
1803.99	24.043
1802.54	10.3023
1801.08	0
1799.62	0
1798.17	0
1796.71	17.1581
1795.25	1.7155
1793.8	12.0063
1792.34	-5.14463
1790.88	17.1457
1789.42	15.4283
1787.96	3.42789
1786.5	29.1318
1785.04	15.4199
1783.59	22.2692
1782.13	17.1271
1780.67	20.5487
1779.21	0
1777.75	10.2707
1776.28	13.6917
1774.82	5.13347
1773.36	5.13254
1771.9	17.1054
1770.44	5.13068
1768.98	-3.41983
1767.51	0
1766.05	8.54649
1764.59	5.12696
1763.13	1.70868
1761.66	-1.70837
1760.2	15.3725
1758.73	8.53875
1757.27	17.0744
1755.81	1.70713
1754.34	-1.70682
1752.88	30.7172
1751.41	5.11861
1749.95	11.9413
1748.48	3.41117
1747.01	6.8211
1745.55	8.52483
1744.08	0
1742.61	6.81739
1741.15	15.3363
1739.68	0
1738.21	25.5513
1736.74	-1.70311
1735.28	-1.7028
1733.81	-5.10748
1732.34	0
1730.87	17.0188
1729.4	10.2094
1727.93	5.10378
1726.46	5.10285
1724.99	5.10192
1723.52	1.70033
1722.05	17.0002
1720.58	16.9972
1719.11	8.49703
1717.64	0
1716.17	0
1714.69	13.5878
1713.22	5.09452
1711.75	-11.885
1710.28	11.8829
1708.8	-5.09174
1707.33	13.5755
1705.86	5.08989
1704.38	6.78529
1702.91	8.48007
1701.43	11.8699
1699.96	3.3908
1698.49	5.08527
1697.01	1.69478
1695.53	10.1668
1694.06	-6.77666
1692.58	8.46929
1691.11	15.2419
1689.63	16.9324
1688.15	10.1576
1686.68	8.46313
1685.2	-3.38464
1683.72	23.6881
1682.24	1.6917
1680.77	13.5312
1679.29	5.07326
1677.81	13.5262
1676.33	23.6666
1674.85	16.9016
1673.37	0
1671.89	11.8268
1670.41	23.6494
1668.93	6.75574
1667.45	15.1976
1665.97	8.4416
1664.49	5.06404
1663.01	1.68771
1661.53	11.8118
1660.04	-6.74836
1658.56	-10.1207
1657.08	20.2377
1655.6	-3.37234
1654.11	6.74345
1652.63	20.2267
1651.15	25.2787
1649.66	21.9042
1648.18	0
1646.7	13.4746
1645.21	21.8923
1643.73	11.786
1642.24	16.8341
1640.76	16.831
1639.27	13.4623
1637.78	5.04746
1636.3	5.04654
1634.81	6.72749
1633.33	16.8157
1631.84	10.0876
1630.35	8.40477
1628.86	21.8484
1627.38	5.04102
1625.89	16.8003
1624.4	13.4378
1622.91	1.67942
1621.42	3.35823
1619.93	13.4305
1618.44	-3.357
1616.95	8.39098
1615.46	23.4905
1613.97	10.0655
1612.48	16.7728
1610.99	28.5085
1609.5	18.4433
1608.01	13.4109
1606.52	8.38026
1605.03	25.1362
1603.53	18.4298
1602.04	20.1016
1600.55	8.37414
1599.06	18.4198
1597.56	28.4617
1596.07	60.2608
1594.58	61.9234
1593.08	56.8922
1591.59	103.726
1590.09	102.034
1588.6	140.48
1587.1	128.75
1585.61	145.444
1584.11	100.288
1582.62	78.5445
1581.12	58.4799
1579.62	40.0932
1578.13	45.0966
1576.63	20.0393
1575.13	26.7141
1573.63	15.024
1572.14	16.6902
1570.64	5.00615
1569.14	16.6841
1567.64	-3.33621
1566.14	3.3356
1564.64	15.0075
1563.14	8.33596
1561.64	18.3358
1560.14	18.3324
1558.64	19.9953
1557.14	26.6556
1555.64	14.991
1554.14	13.3229
1552.64	11.6554
1551.14	9.98852
1549.63	1.66445
1548.13	8.32072
1546.63	8.31919
1545.13	3.32707
1543.62	14.9691
1542.12	11.6405
1540.62	0
1539.11	0
1537.61	4.98603
1536.1	0
1534.6	3.3228
1533.09	1.6611
1531.59	9.96476
1530.08	19.9259
1528.58	14.9417
1527.07	14.9389
1525.57	8.29788
1524.06	9.95563
1522.55	21.5666
1521.04	4.97599
1519.54	9.95016
1518.03	11.6064
1516.52	23.2085
1515.01	24.8617
1513.5	6.62857
1512	9.94104
1510.49	8.28268
1508.98	8.28116
1507.47	4.96778
1505.96	8.27812
1504.45	-3.31064
1502.94	14.8951
1501.43	8.27356
1499.91	0
1498.4	9.92463
1496.89	1.6538
1495.38	13.228
1493.87	-1.65319
1492.35	8.26446
1490.84	11.5681
1489.33	11.566
1487.82	8.2599
1486.3	4.95503
1484.79	6.6055
1483.27	8.25535
1481.76	-11.5554
1480.24	3.30093
1478.73	6.60064
1477.21	9.89915
1475.7	16.4955
1474.18	1.64925
1472.67	-8.24474
1471.15	1.64865
1469.63	8.24171
1468.12	19.7765
1466.6	1.64774
1465.08	3.29487
1463.56	0
1462.05	6.58731
1460.53	-4.93958
1459.01	8.23111
1457.49	11.5214
1455.97	3.29123
1454.45	6.58126
1452.93	9.87007
1451.41	-1.64471
1449.89	4.93322
1448.37	8.22052
1446.85	4.9314
1445.33	14.7915
1443.81	8.21598
1442.29	4.92868
1440.76	-3.28518
1439.24	18.0652
1437.72	16.4199
1436.2	-1.64168
1434.67	11.4897
1433.15	-4.92324
1431.63	4.92233
1430.1	9.84286
1428.58	19.6821
1427.05	0
1425.53	21.3144
1424	16.3927
1422.48	11.4728
1420.95	1.63866
1419.43	6.55345
1417.9	1.63806
1416.37	-1.63776
1414.85	19.6495
1413.32	3.27431
1411.79	0
1410.27	13.0924
1408.74	17.9987
1407.21	3.2719
1405.68	11.4495
1404.15	4.90603
1402.62	9.81026
1401.09	-4.90422
1399.56	14.71
1398.03	8.17069
1396.5	-3.26767
1394.97	6.53414
1393.44	11.4326
1391.91	-11.4305
1390.38	-1.63263
1388.85	4.89699
1387.32	16.3203
1385.79	16.3173
1384.25	9.78856
1382.72	6.5245
1381.19	-3.26165
1379.65	16.3052
1378.12	-4.89067
1376.59	19.5591
1375.05	-8.1481
1373.52	4.88796
1371.98	8.14509
1370.45	17.9159
1368.91	-1.62842
1367.38	0
1365.84	3.25563
1364.31	-1.62751
1362.77	-3.25443
1361.23	-4.88074
1359.7	-6.50645
1358.16	9.75787
1356.62	6.50405
1355.08	8.12856
1353.55	-3.25082
1352.01	17.8762
1350.47	4.87443
1348.93	0
1347.39	1.62421
1345.85	-1.62391
1344.31	8.11804
1342.77	12.9865
1341.23	0
1339.69	8.11354
1338.15	3.24481
1336.61	4.86632
1335.07	12.9745
1333.52	16.2151
1331.98	22.6969
1330.44	11.3463
1328.9	24.3091
1327.35	1.62031
1325.81	11.34
1324.27	3.23941
1322.72	3.23881
1321.18	4.85732
1319.64	22.6633
1318.09	4.85552
1316.55	4.85463
1315	3.23582
1313.46	3.23522
1311.91	-1.61731
1310.36	6.46804
1308.82	9.70026
1307.27	17.7805
1305.72	4.84833
1304.18	29.0846
1302.63	-4.84654
1301.08	20.9978
1299.53	11.3044
1297.98	6.45846
1296.44	11.3002
1294.89	3.22803
1293.34	9.6823
1291.79	1.61342
1290.24	4.83935
1288.69	20.9666
1287.14	19.3502
1285.59	6.44888
1284.04	6.44769
1282.49	11.2814
1280.93	11.2793
1279.38	12.8882
1277.83	0
1276.28	8.05214
1274.72	17.7114
1273.17	-1.60983
1271.62	1.60953
1270.06	6.43693
1268.51	11.2625
1266.96	4.8259
1265.4	6.43335
1263.85	12.8643
1262.29	3.21548
1260.74	9.64464
1259.18	-9.64285
1257.63	-3.21369
1256.07	3.21309
1254.51	22.4875
1252.96	8.02974
1251.4	16.0565
1249.84	3.2107
1248.29	6.42021
1246.73	3.20951
1245.17	0
1243.61	8.02079
1242.05	20.8502
1240.49	14.4321
1238.93	-17.6359
1237.37	-3.20593
1235.81	3.20534
1234.25	20.8308
1232.69	22.429
1231.13	4.80532
1229.57	9.60886
1228.01	12.8094
1226.45	3.20176
1224.89	16.0058
1223.32	1.60029
1221.76	14.3999
1220.2	6.39876
1218.64	9.59636
1217.07	-4.79729
1215.51	14.3892
1213.95	7.9925
1212.38	19.1784
1210.82	-3.19581
1209.25	3.19522
1207.69	3.19462
1206.12	3.19403
1204.56	-4.79015
1202.99	20.7534
1201.42	6.38448
1199.86	-4.78747
1198.29	1.59553
1196.72	20.738
1195.15	3.18986
1193.59	1.59463
1192.02	14.349
1190.45	3.18808
1188.88	4.78123
1187.31	9.56068
1185.74	11.152
1184.17	19.1142
1182.6	4.77767
1181.03	0
1179.46	7.95981
1177.89	1.59167
1176.32	4.77411
1174.75	17.5018
1173.18	12.7262
1171.61	6.36191
1170.04	9.54109
1168.46	1.58989
1166.89	0
1165.32	-6.35717
1163.74	4.76699
1162.17	-1.5887
1160.6	11.1188
1159.02	-3.17621
1157.45	15.8781
1155.87	1.58751
1154.3	-1.58722
1152.72	12.6954
1151.15	-1.58662
1149.57	4.75899
1147.99	4.7581
1146.42	12.6859
1144.84	-3.17088
1143.26	-3.17029
1141.69	4.75454
1140.11	4.75366
1138.53	-3.16851
1136.95	15.8396
1135.37	-1.58366
1133.79	19.0004
1132.22	20.5799
1130.64	-3.16555
1129.06	1.58248
1127.48	7.91093
1125.9	9.49134
1124.32	9.48956
1122.73	11.0691
1121.15	4.74301
1119.57	1.58071
1117.99	6.32165
1116.41	-4.74035
1114.82	1.57982
1113.24	-1.57952
1111.66	4.73769
1110.08	11.0525
1108.49	0
1106.91	6.31337
1105.32	14.2024
1103.74	11.0443
1102.15	6.30983
1100.57	9.46297
1098.98	0
1097.4	-9.45943
1095.81	1.57628
1094.23	9.45589
1092.64	4.72706
1091.05	15.7539
1089.47	22.0514
1087.88	4.72441
1086.29	7.87254
1084.7	6.29685
1083.11	3.14783
1081.52	6.29449
1079.94	12.5866
1078.35	9.4382
1076.76	1.57274
1075.17	-7.86222
1073.58	-6.2886
1071.99	4.71556
1070.4	-3.14312
1068.8	-6.28506
1067.21	9.42583
1065.62	1.57068
1064.03	6.28153
1062.44	14.1308
1060.84	-1.56979
1059.25	3.139
1057.66	4.70761
1056.07	10.9824
1054.47	4.70585
1052.88	3.13664
1051.28	4.70408
1049.69	3.13547
1048.09	7.8372
1046.5	10.97
1044.9	-7.83426
1043.31	-4.69967
1041.71	7.83132
1040.11	17.2257
1038.52	9.39405
1036.92	3.13076
1035.32	12.5207
1033.73	9.38876
1032.13	15.645
1030.53	10.9494
1028.93	21.8948
1027.33	9.38171
1025.73	3.12665
1024.13	1.56303
1022.53	18.7529
1020.93	18.7493
1019.33	9.3729
1017.73	23.4279
1016.13	9.36938
1014.53	28.1029
1012.93	3.12195
1011.33	23.4103
1009.72	28.087
1008.12	7.80048
1006.52	26.5167
1004.92	34.3092
1003.31	20.2698
1001.71	31.1785
1000.11	20.2622
