3200.54	14.4374
3199.33	35.0621
3198.12	4.12426
3196.9	28.865
3195.69	4.12287
3194.48	0
3193.27	8.24297
3192.05	35.0267
3190.84	2.06005
3189.62	18.5373
3188.41	24.7122
3187.2	0
3185.98	2.05866
3184.77	0
3183.55	8.23186
3182.34	22.6338
3181.12	16.4582
3179.91	16.4554
3178.69	8.22631
3177.48	14.3936
3176.26	20.5588
3175.04	16.4443
3173.83	18.4967
3172.61	4.10969
3171.39	6.1635
3170.18	16.4332
3168.96	2.05381
3167.74	16.4277
3166.52	6.15934
3165.31	10.2638
3164.09	30.7863
3162.87	16.4166
3161.65	2.05173
3160.43	4.10276
3159.21	36.9186
3157.99	6.15207
3156.78	28.7048
3155.56	24.6
3154.34	6.14895
3153.12	22.5423
3151.9	10.2448
3150.68	10.2431
3149.46	10.2413
3148.23	4.09584
3147.01	6.14272
3145.79	24.5667
3144.57	16.3751
3143.35	18.4188
3142.13	36.8315
3140.91	12.2751
3139.68	12.273
3138.46	8.18062
3137.24	-2.04481
3136.02	14.3112
3134.79	2.04412
3133.57	-6.13132
3132.35	12.2606
3131.12	18.3877
3129.9	6.12821
3128.67	22.4663
3127.45	22.4625
3126.23	2.0417
3125	16.3308
3123.78	8.16404
3122.55	10.2033
3121.33	26.5242
3120.1	18.3598
3118.87	10.1982
3117.65	16.3143
3116.42	12.2336
3115.2	20.386
3113.97	18.3443
3112.74	2.03791
3111.52	12.2254
3110.29	8.14887
3109.06	12.2212
3107.83	18.3287
3106.61	22.398
3105.38	14.2509
3104.15	28.4969
3102.92	20.3515
3101.69	16.2784
3100.46	-16.2757
3099.23	8.13646
3098.01	28.4728
3096.78	12.2006
3095.55	6.09925
3094.32	0
3093.09	20.3239
3091.86	16.2564
3090.63	16.2536
3089.4	6.09408
3088.16	20.3102
3086.93	4.06135
3085.7	14.2123
3084.47	0
3083.24	12.1778
3082.01	8.11719
3080.77	14.2027
3079.54	20.2861
3078.31	16.2261
3077.08	2.02792
3075.84	6.08274
3074.61	10.1362
3073.38	2.02689
3072.14	-6.07964
3070.91	14.1834
3069.68	-16.2069
3068.44	8.10207
3067.21	22.2769
3065.97	26.3228
3064.74	12.1469
3063.5	16.1931
3062.27	16.1904
3061.03	8.09383
3059.8	14.1618
3058.56	6.06831
3057.32	14.157
3056.09	10.1104
3054.85	10.1087
3053.61	-6.06419
3052.38	24.2527
3051.14	10.1036
3049.9	24.2444
3048.66	-2.02003
3047.43	0
3046.19	10.0967
3044.95	-12.114
3043.71	2.01865
3042.47	-4.03662
3041.23	-6.05391
3040	14.1234
3038.76	-4.03457
3037.52	-2.01694
3036.28	20.166
3035.04	8.06503
3033.8	18.1432
3032.56	6.04671
3031.32	4.03046
3030.08	18.134
3028.83	26.1891
3027.59	40.284
3026.35	-2.01386
3025.11	14.0946
3023.87	6.03953
3022.63	-2.01283
3021.38	22.1374
3020.14	4.0243
3018.9	20.1181
3017.66	12.0688
3016.41	16.089
3015.17	6.03234
3013.93	16.0835
3012.68	22.1111
3011.44	24.1171
3010.19	12.0565
3008.95	10.0454
3007.71	12.0524
3006.46	10.0419
3005.22	-2.00805
3003.97	20.0771
3002.73	8.02945
3001.48	4.01404
3000.23	20.0668
2998.99	2.00634
2997.74	18.054
2996.49	8.02262
2995.25	20.0531
2994	4.00995
2992.75	20.0463
2991.51	20.0429
2990.26	4.0079
2989.01	16.0289
2987.76	0
2986.52	4.00585
2985.27	12.0155
2984.02	18.0202
2982.77	4.00381
2981.52	12.0094
2980.27	4.00244
2979.02	8.00352
2977.77	18.0049
2976.52	4.0004
2975.27	13.999
2974.02	13.9966
2972.77	29.9876
2971.52	13.9919
2970.27	13.9895
2969.02	37.9649
2967.77	7.99126
2966.52	3.99495
2965.26	23.9656
2964.01	19.9679
2962.76	23.9574
2961.51	-3.99222
2960.25	-7.98309
2959	5.98629
2957.75	-5.98527
2956.5	17.9528
2955.24	9.97205
2953.99	21.9348
2952.73	5.98119
2951.48	9.96695
2950.23	9.96525
2948.97	15.9417
2947.72	33.8703
2946.46	0
2945.21	23.9003
2943.95	25.8876
2942.7	1.99101
2941.44	-7.96268
2940.18	0
2938.93	21.8899
2937.67	25.8655
2936.41	0
2935.16	0
2933.9	35.7954
2932.64	19.8829
2931.38	-3.97591
2930.13	17.8885
2928.87	7.9491
2927.61	29.804
2926.35	15.8928
2925.09	7.94502
2923.83	21.8451
2922.58	13.899
2921.32	7.94095
2920.06	7.9396
2918.8	5.95368
2917.54	3.96844
2916.28	19.8388
2915.02	7.93417
2913.76	9.91602
2912.5	15.8629
2911.23	21.8078
2909.97	19.8219
2908.71	5.94554
2907.45	3.96302
2906.19	13.8682
2904.93	-13.8658
2903.66	9.90246
2902.4	13.8611
2901.14	1.97982
2899.88	19.7948
2898.61	0
2897.35	3.9576
2896.09	9.89231
2894.82	7.91249
2893.56	9.88892
2892.29	9.88723
2891.03	1.97711
2889.76	-13.8374
2888.5	15.8114
2887.23	15.8087
2885.97	19.7575
2884.7	5.92625
2883.44	11.8505
2882.17	11.8484
2880.9	15.7952
2879.64	27.6369
2878.37	3.94745
2877.1	7.89355
2875.84	5.91915
2874.57	15.7817
2873.3	25.6409
2872.04	9.86018
2870.77	1.9717
2869.5	1.97136
2868.23	-1.97102
2866.96	25.6189
2865.69	3.9407
2864.42	-13.7901
2863.16	5.90902
2861.89	3.93867
2860.62	9.84499
2859.35	-3.93732
2858.08	-9.84161
2856.81	1.96799
2855.54	9.83824
2854.26	11.8039
2852.99	3.93395
2851.72	-1.96664
2850.45	-3.9326
2849.18	13.7617
2847.91	27.5187
2846.64	-3.93057
2845.36	11.7897
2844.09	7.85845
2842.82	5.89283
2841.54	21.6033
2840.27	13.7452
2839	11.7796
2837.72	9.81464
2836.45	13.7381
2835.18	0
2833.9	5.88575
2832.63	9.80791
2831.35	0
2830.08	11.7654
2828.8	-5.88171
2827.53	7.84094
2826.25	3.9198
2824.98	3.91912
2823.7	7.8369
2822.42	5.87667
2821.15	11.7513
2819.87	13.7075
2818.59	7.83152
2817.32	21.533
2816.04	-3.91441
2814.76	11.7412
2813.48	5.8696
2812.21	0
2810.93	27.3821
2809.65	31.2884
2808.37	27.3727
2807.09	13.684
2805.81	-5.86356
2804.53	13.6793
2803.25	-1.95385
2801.97	23.4421
2800.69	35.1571
2799.41	3.90568
2798.13	-3.90501
2796.85	3.90434
2795.57	21.4702
2794.29	11.709
2793.01	3.90232
2791.73	7.8033
2790.45	17.5544
2789.17	0
2787.88	15.5985
2786.6	3.89897
2785.32	25.3389
2784.04	-5.84644
2782.75	-1.94848
2781.47	-11.6889
2780.19	17.5303
2778.9	11.6848
2777.62	0
2776.33	23.3616
2775.05	15.5717
2773.76	9.73065
2772.48	1.9458
2771.19	5.83638
2769.91	7.7805
2768.62	15.5583
2767.34	19.4446
2766.05	3.88824
2764.77	11.6627
2763.48	11.6607
2762.19	15.5449
2760.91	15.5423
2759.62	9.71224
2758.33	5.82634
2757.04	13.5924
2755.76	1.94144
2754.47	3.88222
2753.18	17.467
2751.89	11.6426
2750.6	11.6406
2749.31	11.6386
2748.03	15.5155
2746.74	17.4519
2745.45	9.69384
2744.16	-3.87687
2742.87	19.381
2741.58	1.93777
2740.29	9.68716
2739	-3.87419
2737.71	0
2736.41	5.80929
2735.12	5.80829
2733.83	19.3576
2732.54	27.096
2731.25	1.93509
2729.96	-9.6738
2728.66	15.4754
2727.37	19.3409
2726.08	19.3376
2724.79	7.7337
2723.49	3.86618
2722.2	-7.73103
2720.9	15.4594
2719.61	1.93209
2718.32	23.1811
2717.02	15.4514
2715.73	27.0352
2714.43	15.446
2713.14	17.3738
2711.84	19.3009
2710.55	13.5083
2709.25	9.64711
2707.96	19.2909
2706.66	23.1451
2705.36	-9.64211
2704.07	21.209
2702.77	7.71103
2701.47	5.78227
2700.17	17.3438
2698.88	11.5605
2697.58	15.4114
2696.28	17.3348
2694.98	7.70303
2693.69	17.3288
2692.39	17.3258
2691.09	9.6238
2689.79	23.0931
2688.49	7.69638
2687.19	13.4663
2685.89	5.77029
2684.59	15.3848
2683.29	3.84553
2681.99	11.5346
2680.69	0
2679.39	5.7653
2678.09	0
2676.79	-1.9211
2675.48	13.4454
2674.18	15.3635
2672.88	15.3608
2671.58	-3.83954
2670.28	7.67776
2668.97	24.9484
2667.67	11.5127
2666.37	15.3475
2665.06	19.1811
2663.76	7.67112
2662.46	21.0919
2661.15	13.4198
2659.85	32.5853
2658.54	0
2657.24	0
2655.93	1.91579
2654.63	9.57728
2653.32	7.6605
2652.02	7.65917
2650.71	13.4012
2649.41	11.4848
2648.1	5.74139
2646.79	13.3943
2645.49	-11.4788
2644.18	15.3024
2642.87	7.64988
2641.56	0
2640.26	7.64723
2638.95	7.64591
2637.64	-11.4669
2636.33	24.8406
2635.02	15.2839
2633.71	7.64061
2632.41	1.90982
2631.1	19.0949
2629.79	-9.54579
2628.48	3.81765
2627.17	15.268
2625.86	5.72449
2624.55	19.0783
2623.24	13.3525
2621.93	5.72152
2620.61	11.441
2619.3	24.7846
2617.99	15.2494
2616.68	9.52924
2615.37	9.52759
2614.06	11.4311
2612.74	3.80971
2611.43	3.80905
2610.12	9.52098
2608.8	-1.90386
2607.49	20.9389
2606.18	11.4192
2604.86	0
2603.55	-5.70763
2602.24	5.70664
2600.92	9.50941
2599.61	0
2598.29	9.50611
2596.98	19.0089
2595.66	15.2045
2594.34	17.1021
2593.03	24.6987
2591.71	15.1966
2590.4	9.4962
2589.08	9.49455
2587.76	9.4929
2586.45	17.0843
2585.13	9.4896
2583.81	22.7711
2582.49	22.7671
2581.18	9.48465
2579.86	1.8966
2578.54	13.2739
2577.22	-9.47971
2575.9	17.0605
2574.58	13.267
2573.26	9.47476
2571.94	11.3677
2570.62	3.78859
2569.3	17.0457
2567.98	13.2554
2566.66	26.5063
2565.34	13.2508
2564.02	5.67794
2562.7	3.78463
2561.38	18.9199
2560.06	5.67497
2558.74	15.1306
2557.41	15.128
2556.09	5.67201
2554.77	1.89034
2553.45	9.45006
2552.12	-3.77937
2550.8	1.88935
2549.48	7.5561
2548.15	22.6644
2546.83	18.8837
2545.51	-7.55215
2544.18	5.66313
2542.86	13.2117
2541.53	-1.88705
2540.21	28.3008
2538.88	7.54558
2537.56	11.3164
2536.23	11.3144
2534.9	-5.65623
2533.58	7.54032
2532.25	-3.7695
2530.92	15.0754
2529.6	16.9569
2528.27	-7.53506
2526.94	7.53375
2525.62	5.64933
2524.29	13.1795
2522.96	18.8245
2521.63	9.41062
2520.3	9.40898
2518.97	11.2888
2517.65	26.336
2516.32	1.88081
2514.99	-7.52194
2513.66	-7.52062
2512.33	3.75966
2511	13.1565
2509.67	9.39586
2508.34	3.75769
2507.01	3.75703
2505.67	1.87819
2504.34	18.7786
2503.01	9.38766
2501.68	5.63161
2500.35	5.63063
2499.02	5.62965
2497.68	13.1336
2496.35	3.75179
2495.02	9.37783
2493.68	16.8772
2492.35	11.2495
2491.02	-16.8713
2489.68	0
2488.35	5.62179
2487.01	11.2416
2485.68	7.4931
2484.35	9.36474
2483.01	7.49048
2481.68	3.74459
2480.34	-1.87197
2479	7.48656
2477.67	-7.48525
2476.33	18.7098
2475	1.87066
2473.66	7.48132
2472.32	1.87
2470.98	18.6968
2469.65	14.9548
2468.31	7.47609
2466.97	7.47479
2465.63	14.947
2464.3	9.34021
2462.96	3.73543
2461.62	5.60217
2460.28	14.9365
2458.94	-5.60021
2457.6	14.9313
2456.26	14.9287
2454.92	11.1945
2453.58	-3.73086
2452.24	20.5161
2450.9	20.5125
2449.56	11.1867
2448.22	-11.1847
2446.88	14.9104
2445.53	20.4982
2444.19	14.9052
2442.85	16.7654
2441.51	5.58748
2440.17	0
2438.82	20.4803
2437.48	-5.58455
2436.14	0
2434.79	13.026
2433.45	1.86054
2432.11	5.58063
2430.76	9.29943
2429.42	3.71912
2428.07	11.1554
2426.73	7.43563
2425.38	3.71716
2424.04	14.8661
2422.69	18.5793
2421.35	-7.43042
2420	5.57184
2418.65	9.28477
2417.31	3.71326
2415.96	-5.56891
2414.61	11.1359
2413.27	27.8348
2411.92	5.56598
2410.57	11.13
2409.22	0
2407.87	11.1261
2406.53	11.1242
2405.18	12.9759
2403.83	1.85338
2402.48	20.3836
2401.13	-1.85272
2399.78	9.262
2398.43	22.2249
2397.08	1.85175
2395.73	14.8114
2394.38	25.9154
2393.03	7.4031
2391.68	11.1027
2390.33	9.25063
2388.98	20.3478
2387.62	11.0969
2386.27	14.7932
2384.92	14.7906
2383.57	0
2382.21	5.54453
2380.86	-3.6957
2379.51	12.9327
2378.15	3.69441
2376.8	14.775
2375.45	22.1587
2374.09	-9.23115
2372.74	7.38362
2371.38	20.3014
2370.03	12.9168
2368.67	22.1392
2367.32	18.4461
2365.96	9.22142
2364.61	7.37584
2363.25	-18.4364
2361.9	11.0599
2360.54	-1.84299
2359.18	9.21332
2357.83	7.36936
2356.47	9.21008
2355.11	1.84169
2353.75	0
2352.39	9.20522
2351.04	12.885
2349.68	7.36159
2348.32	1.84007
2346.96	5.51925
2345.6	7.3577
2344.24	11.0346
2342.88	-1.83878
2341.52	18.3845
2340.16	14.705
2338.8	22.0537
2337.44	11.0249
2336.08	-7.34864
2334.72	12.8579
2333.36	18.3651
2332	-7.34476
2330.64	16.5228
2329.27	5.50663
2327.91	1.83522
2326.55	-14.6792
2325.19	5.50372
2323.82	-1.83425
2322.46	11.0036
2321.1	3.66721
2319.73	12.833
2318.37	0
2317	-10.9958
2315.64	27.4847
2314.28	3.66398
2312.91	0
2311.55	14.6508
2310.18	3.66204
2308.81	10.9842
2307.45	-3.66075
2306.08	9.15027
2304.72	-3.65946
2303.35	3.65882
2301.98	-3.65817
2300.62	5.48629
2299.25	0
2297.88	1.82812
2296.51	0
2295.15	-7.30989
2293.78	-10.9629
2292.41	-9.13414
2291.04	14.6121
2289.67	14.6095
2288.3	1.82586
2286.93	12.7788
2285.56	16.427
2284.19	16.4241
2282.82	16.4212
2281.45	-3.6485
2280.08	16.4154
2278.71	3.64721
2277.34	9.11643
2275.97	-5.46889
2274.6	0
2273.22	5.46696
2271.85	0
2270.48	16.3951
2269.11	3.64271
2267.73	18.2103
2266.36	14.5657
2264.99	23.6651
2263.61	12.7405
2262.24	14.558
2260.87	18.1942
2259.49	0
2258.12	14.5503
2256.74	12.7292
2255.37	1.81814
2253.99	16.3604
2252.62	7.26998
2251.24	3.63435
2249.87	3.63371
2248.49	9.08266
2247.11	3.63242
2245.74	1.81589
2244.36	0
2242.98	3.6305
2241.6	0
2240.23	-5.44382
2238.85	7.25714
2237.47	3.62793
2236.09	9.06821
2234.71	16.3199
2233.33	16.317
2231.96	14.5014
2230.58	10.8742
2229.2	1.81204
2227.82	5.43515
2226.44	0
2225.06	18.1108
2223.68	10.8645
2222.29	16.2939
2220.91	18.1012
2219.53	0
2218.15	7.2379
2216.77	1.80915
2215.39	10.853
2214	7.23405
2212.62	-3.61639
2211.24	10.8472
2209.86	1.80755
2208.47	0
2207.09	5.42073
2205.7	5.41977
2204.32	0
2202.94	7.2238
2201.55	5.41689
2200.17	5.41593
2198.78	14.4399
2197.4	36.0934
2196.01	0
2194.63	5.41209
2193.24	1.80371
2191.85	1.80339
2190.47	1.80307
2189.08	0
2187.69	-9.01216
2186.31	3.60423
2184.92	23.4233
2183.53	16.2133
2182.14	9.00577
2180.75	5.4025
2179.37	23.4067
2177.98	5.40059
2176.59	5.39963
2175.2	1.79956
2173.81	5.39771
2172.42	8.99459
2171.03	-5.3958
2169.64	-7.19312
2168.25	7.19184
2166.86	19.7741
2165.47	-3.59464
2164.08	19.767
2162.68	14.3735
2161.29	10.7782
2159.9	25.1446
2158.51	17.9573
2157.12	8.97704
2155.72	0
2154.33	1.79477
2152.94	10.7667
2151.54	16.1472
2150.15	19.7319
2148.76	-3.58699
2147.36	8.96588
2145.97	3.58571
2144.57	-8.96269
2143.18	5.37666
2141.78	3.5838
2140.39	16.1242
2138.99	7.16506
2137.6	10.7457
2136.2	-8.95314
2134.8	14.3225
2133.41	-5.36997
2132.01	12.5277
2130.61	-3.57871
2129.22	21.4684
2127.82	3.57743
2126.42	3.5768
2125.02	25.0331
2123.62	0
2122.22	10.7247
2120.83	3.57425
2119.43	8.93404
2118.03	-3.57298
2116.63	-3.57235
2115.23	10.7151
2113.83	19.6409
2112.43	7.14088
2111.03	1.7849
2109.63	17.8458
2108.22	10.7056
2106.82	8.91974
2105.42	0
2104.02	17.8331
2102.62	-8.91497
2101.21	10.6961
2099.81	12.4765
2098.41	1.78204
2097.01	12.4721
2095.6	5.34422
2094.2	16.0298
2092.8	12.4654
2091.39	1.78046
2089.99	19.5815
2088.58	16.0184
2087.18	8.89752
2085.77	10.6751
2084.37	10.6732
2082.96	3.5571
2081.56	16.0041
2080.15	21.335
2078.74	14.2208
2077.34	8.88642
2075.93	1.77697
2074.52	5.32995
2073.11	3.55267
2071.71	10.6561
2070.3	19.5327
2068.89	3.55076
2067.48	-12.4255
2066.07	15.9727
2064.66	0
2063.26	1.77412
2061.85	7.0952
2060.44	-3.54696
2059.03	23.0512
2057.62	-17.7285
2056.21	8.86266
2054.8	7.08887
2053.38	8.8595
2051.97	3.54317
2050.56	1.77127
2049.15	14.1676
2047.74	10.6238
2046.33	8.85159
2044.91	15.93
2043.5	14.1575
2042.09	24.7712
2040.68	0
2039.26	-10.6124
2037.85	15.9158
2036.43	-8.84053
2035.02	8.83895
2033.61	26.5121
2032.19	7.06863
2030.78	-1.76684
2029.36	1.76653
2027.95	19.4283
2026.53	-3.53179
2025.11	5.29674
2023.7	10.5916
2022.28	-3.52989
2020.86	3.52926
2019.45	1.76432
2018.03	5.292
2016.61	8.81842
2015.19	5.29011
2013.78	0
2012.36	-3.52548
2010.94	12.337
2009.52	0
2008.1	5.28538
2006.68	7.04591
2005.26	1.76116
2003.84	10.5651
2002.42	3.52106
2001	3.52043
1999.58	8.79951
1998.16	8.79793
1996.74	10.5556
1995.32	8.79478
1993.9	12.3105
1992.48	3.51665
1991.05	10.5481
1989.63	0
1988.21	21.0886
1986.79	15.8136
1985.36	14.054
1983.94	5.26931
1982.52	0
1981.09	1.75581
1979.67	-1.75549
1978.24	7.02071
1976.82	1.75486
1975.39	12.2818
1973.97	-7.01694
1972.54	8.7696
1971.12	-3.50721
1969.69	10.5197
1968.27	1.75298
1966.84	19.2793
1965.41	0
1963.99	14.0163
1962.56	12.262
1961.13	12.2598
1959.7	1.75109
1958.28	-5.25233
1956.85	0
1955.42	-5.25045
1953.99	-3.49967
1952.56	3.49904
1951.13	13.9937
1949.7	6.99557
1948.27	19.2344
1946.84	12.2379
1945.41	15.7316
1943.98	1.74764
1942.55	3.49465
1941.12	-3.49402
1939.69	0
1938.26	17.4638
1936.83	6.98428
1935.39	17.4576
1933.96	12.2181
1932.53	3.49026
1931.1	8.72407
1929.66	10.467
1928.23	6.97675
1926.8	6.9755
1925.36	17.4356
1923.93	3.4865
1922.49	-6.97174
1921.06	1.74262
1919.62	15.6808
1918.19	5.22598
1916.75	5.22505
1915.32	13.9309
1913.88	13.9284
1912.45	17.4074
1911.01	10.4426
1909.57	13.9209
1908.14	10.4388
1906.7	15.6554
1905.26	19.131
1903.82	15.6498
1902.39	-3.4771
1900.95	-5.21472
1899.51	6.95171
1898.07	-8.68807
1896.63	5.2119
1895.19	5.21097
1893.75	5.21003
1892.31	3.47273
1890.87	-10.4163
1889.43	3.47148
1887.99	6.9417
1886.55	-1.73511
1885.11	6.9392
1883.67	15.6104
1882.23	3.46835
1880.79	8.66932
1879.34	5.20065
1877.9	0
1876.46	19.0622
1875.02	25.9892
1873.57	6.92921
1872.13	-3.46398
1870.69	6.92671
1869.24	10.3882
1867.8	0
1866.35	6.92297
1864.91	6.92172
1863.46	10.3807
1862.02	3.45961
1860.57	-3.45899
1859.13	1.72918
1857.68	13.831
1856.23	6.91424
1854.79	-3.4565
1853.34	15.5514
1851.89	3.45525
1850.45	10.3639
1849	18.997
1847.55	0
1846.1	13.811
1844.65	3.45213
1843.21	-3.45151
1841.76	-5.17633
1840.31	12.0759
1838.86	15.5234
1837.41	1.72451
1835.96	8.62099
1834.51	0
1833.06	8.61788
1831.61	5.1698
1830.16	3.44591
1828.7	12.0585
1827.25	-5.167
1825.8	12.0541
1824.35	1.72171
1822.9	20.6568
1821.44	6.88435
1819.99	18.9285
1818.54	-15.4842
1817.09	6.88062
1815.63	13.7588
1814.18	-5.1586
1812.72	-1.71922
1811.27	-1.71891
1809.81	0
1808.36	8.59146
1806.9	0
1805.45	-3.43534
1803.99	6.86944
1802.54	0
1801.08	10.3004
1799.62	25.7464
1798.17	5.14835
1796.71	5.14742
1795.25	6.86199
1793.8	10.2911
1792.34	12.0041
1790.88	32.5768
1789.42	-3.42851
1787.96	1.71395
1786.5	1.71364
1785.04	0
1783.59	22.2692
1782.13	-11.9889
1780.67	11.9868
1779.21	3.42417
1777.75	23.9649
1776.28	1.71147
1774.82	1.71116
1773.36	3.42169
1771.9	6.84215
1770.44	-6.84091
1768.98	-5.12975
1767.51	6.83843
1766.05	0
1764.59	3.41798
1763.13	-6.83471
1761.66	-8.54184
1760.2	-3.41612
1758.73	-5.12325
1757.27	-1.70744
1755.81	6.82852
1754.34	6.82729
1752.88	10.2391
1751.41	6.82481
1749.95	-8.52947
1748.48	-1.70558
1747.01	6.8211
1745.55	8.52483
1744.08	-3.40931
1742.61	-1.70435
1741.15	5.11212
1739.68	10.2224
1738.21	5.11026
1736.74	0
1735.28	-6.81121
1733.81	-5.10748
1732.34	-3.40437
1730.87	13.615
1729.4	0
1727.93	11.9088
1726.46	0
1724.99	3.40128
1723.52	-3.40066
1722.05	-3.40005
1720.58	11.898
1719.11	1.69941
1717.64	1.6991
1716.17	15.2891
1714.69	-6.79392
1713.22	8.49086
1711.75	-1.69786
1710.28	6.79022
1708.8	3.39449
1707.33	0
1705.86	1.69663
1704.38	-3.39265
1702.91	10.1761
1701.43	0
1699.96	1.6954
1698.49	8.47545
1697.01	15.253
1695.53	1.69447
1694.06	-1.69417
1692.58	3.38772
1691.11	11.8548
1689.63	-11.8527
1688.15	22.0081
1686.68	-6.77051
1685.2	-11.8462
1683.72	3.38402
1682.24	5.07511
1680.77	5.07419
1679.29	-6.76435
1677.81	3.38156
1676.33	6.76189
1674.85	11.8312
1673.37	15.2087
1671.89	10.1373
1670.41	8.44621
1668.93	-10.1336
1667.45	0
1665.97	13.5066
1664.49	-1.68801
1663.01	16.8771
1661.53	10.1244
1660.04	0
1658.56	13.4943
1657.08	5.05943
1655.6	8.43085
1654.11	21.9162
1652.63	5.05667
1651.15	-1.68525
1649.66	13.4795
1648.18	11.7924
1646.7	-3.36865
1645.21	11.7881
1643.73	5.05114
1642.24	-5.05022
1640.76	-1.6831
1639.27	5.04838
1637.78	6.72995
1636.3	1.68218
1634.81	-5.04562
1633.33	18.4972
1631.84	16.8126
1630.35	-5.04286
1628.86	11.7645
1627.38	5.04102
1625.89	-10.0802
1624.4	1.67973
1622.91	16.7942
1621.42	8.39557
1619.93	5.03642
1618.44	-10.071
1616.95	-6.71278
1615.46	5.03367
1613.97	-13.4207
1612.48	15.0955
1610.99	3.35394
1609.5	3.35333
1608.01	-10.0582
1606.52	-5.02816
1605.03	-8.37873
1603.53	11.7281
1602.04	3.35027
1600.55	15.0735
1599.06	5.02357
1597.56	8.37109
1596.07	6.69565
1594.58	-1.67361
1593.08	10.0398
1591.59	11.711
1590.09	8.36344
1588.6	-5.01715
1587.1	15.0487
1585.61	1.67177
1584.11	8.35733
1582.62	-5.01348
1581.12	6.68342
1579.62	6.6822
1578.13	-1.67024
1576.63	21.7092
1575.13	1.66963
1573.63	0
1572.14	5.00707
1570.64	1.66872
1569.14	3.33683
1567.64	1.66811
1566.14	8.33901
1564.64	8.33749
1563.14	15.0047
1561.64	-3.33377
1560.14	4.99975
1558.64	14.9965
1557.14	6.66389
1555.64	4.997
1554.14	3.33072
1552.64	21.6457
1551.14	3.32951
1549.63	13.3156
1548.13	6.65657
1546.63	13.3107
1545.13	-6.65414
1543.62	4.98969
1542.12	6.6517
1540.62	11.6383
1539.11	-6.64926
1537.61	11.6341
1536.1	13.2937
1534.6	-4.98421
1533.09	8.30549
1531.59	1.66079
1530.08	3.32098
1528.58	1.66018
1527.07	8.2994
1525.57	4.97873
1524.06	0
1522.55	3.31794
1521.04	19.904
1519.54	11.6085
1518.03	26.5289
1516.52	1.65775
1515.01	11.6021
1513.5	-4.97143
1512	16.5684
1510.49	6.62614
1508.98	0
1507.47	4.96778
1505.96	9.93374
1504.45	4.96596
1502.94	-1.65502
1501.43	-4.96414
1499.91	8.27205
1498.4	-1.65411
1496.89	4.96141
1495.38	8.26749
1493.87	6.61278
1492.35	13.2231
1490.84	8.26294
1489.33	6.60914
1487.82	14.8678
1486.3	-1.65168
1484.79	11.5596
1483.27	0
1481.76	3.30154
1480.24	3.30093
1478.73	-4.95048
1477.21	-11.549
1475.7	-1.64955
1474.18	-1.64925
1472.67	-1.64895
1471.15	1.64865
1469.63	9.89006
1468.12	6.59216
1466.6	13.1819
1465.08	1.64743
1463.56	9.88279
1462.05	6.58731
1460.53	-8.23263
1459.01	0
1457.49	11.5214
1455.97	9.8737
1454.45	3.29063
1452.93	3.29002
1451.41	19.7365
1449.89	13.1553
1448.37	16.441
1446.85	23.0132
1445.33	13.148
1443.81	3.28639
1442.29	19.7147
1440.76	3.28518
1439.24	9.85374
1437.72	4.92596
1436.2	-1.64168
1434.67	1.64138
1433.15	6.56432
1431.63	-14.767
1430.1	18.0452
1428.58	8.20087
1427.05	8.19936
1425.53	6.55828
1424	-3.27854
1422.48	0
1420.95	19.664
1419.43	-3.27672
1417.9	0
1416.37	-13.1021
1414.85	0
1413.32	4.91146
1411.79	3.27371
1410.27	8.18276
1408.74	19.635
1407.21	6.54379
1405.68	-3.27129
1404.15	24.5302
1402.62	9.81026
1401.09	8.17371
1399.56	-8.1722
1398.03	0
1396.5	14.7045
1394.97	3.26707
1393.44	16.3323
1391.91	8.16466
1390.38	6.53053
1388.85	4.89699
1387.32	-1.63203
1385.79	4.89518
1384.25	0
1382.72	6.5245
1381.19	9.78495
1379.65	3.26105
1378.12	27.7138
1376.59	-11.4095
1375.05	13.037
1373.52	-4.88796
1371.98	0
1370.45	-11.401
1368.91	13.0273
1367.38	4.88435
1365.84	-4.88345
1364.31	-4.88254
1362.77	0
1361.23	6.50765
1359.7	6.50645
1358.16	3.25262
1356.62	-8.13006
1355.08	4.87713
1353.55	0
1352.01	3.25022
1350.47	-6.49924
1348.93	-12.9961
1347.39	1.62421
1345.85	-1.62391
1344.31	25.9777
1342.77	3.24662
1341.23	-4.86902
1339.69	8.11354
1338.15	3.24481
1336.61	9.73264
1335.07	-11.3526
1333.52	1.62151
1331.98	-1.62121
1330.44	8.10453
1328.9	4.86182
1327.35	-3.24061
1325.81	4.86002
1324.27	-3.23941
1322.72	9.71644
1321.18	-4.85732
1319.64	16.1881
1318.09	16.1851
1316.55	3.23642
1315	8.08954
1313.46	0
1311.91	9.70386
1310.36	8.08505
1308.82	4.85013
1307.27	8.08205
1305.72	-1.61611
1304.18	-8.07906
1302.63	-9.69307
1301.08	17.7673
1299.53	-8.07457
1297.98	8.07307
1296.44	4.84295
1294.89	1.61402
1293.34	17.7509
1291.79	11.2939
1290.24	4.83935
1288.69	8.0641
1287.14	-3.22504
1285.59	4.83666
1284.04	12.8954
1282.49	-6.44649
1280.93	3.22265
1279.38	9.66615
1277.83	24.1609
1276.28	9.66256
1274.72	-1.61013
1273.17	6.43932
1271.62	-3.21906
1270.06	0
1268.51	4.8268
1266.96	3.21727
1265.4	-4.82501
1263.85	6.43215
1262.29	-3.21548
1260.74	1.60744
1259.18	6.42857
1257.63	-3.21369
1256.07	1.60655
1254.51	6.42499
1252.96	6.42379
1251.4	6.4226
1249.84	9.63211
1248.29	-6.42021
1246.73	6.41902
1245.17	1.60446
1243.61	11.2291
1242.05	0
1240.49	3.20713
1238.93	8.01632
1237.37	-17.6326
1235.81	24.04
1234.25	6.40948
1232.69	8.01036
1231.13	-4.80532
1229.57	-4.80443
1228.01	-4.80354
1226.45	16.0088
1224.89	0
1223.32	8.00143
1221.76	7.99994
1220.2	9.59814
1218.64	14.3945
1217.07	-11.1937
1215.51	15.988
1213.95	1.5985
1212.38	-3.1964
1210.82	3.19581
1209.25	12.7809
1207.69	-4.79193
1206.12	6.38805
1204.56	4.79015
1202.99	15.9642
1201.42	4.78836
1199.86	3.19165
1198.29	-3.19105
1196.72	11.1666
1195.15	17.5443
1193.59	12.7571
1192.02	7.97169
1190.45	-6.37616
1188.88	17.5312
1187.31	6.37379
1185.74	1.59315
1184.17	11.15
1182.6	0
1181.03	-14.3303
1179.46	12.7357
1177.89	0
1176.32	1.59137
1174.75	9.54643
1173.18	1.59078
1171.61	3.18096
1170.04	0
1168.46	11.1292
1166.89	1.58959
1165.32	3.17858
1163.74	-7.94498
1162.17	3.1774
1160.6	15.884
1159.02	3.17621
1157.45	15.8781
1155.87	1.58751
1154.3	11.1105
1152.72	4.76076
1151.15	4.75987
1149.57	19.0359
1147.99	-4.7581
1146.42	3.17147
1144.84	9.51264
1143.26	12.6812
1141.69	-4.75454
1140.11	-1.58455
1138.53	-7.92128
1136.95	6.33584
1135.37	19.004
1133.79	4.75011
1132.22	0
1130.64	20.5761
1129.06	3.16496
1127.48	6.32874
1125.9	7.90945
1124.32	15.8159
1122.73	15.813
1121.15	12.648
1119.57	-6.32283
1117.99	3.16082
1116.41	4.74035
1114.82	7.8991
1113.24	28.4314
1111.66	-3.15846
1110.08	17.3683
1108.49	9.47183
1106.91	29.9885
1105.32	6.31219
1103.74	15.7775
1102.15	0
1100.57	6.30865
1098.98	12.6149
1097.4	12.6126
1095.81	4.72883
1094.23	4.72795
1092.64	-4.72706
1091.05	6.30157
1089.47	0
1087.88	12.5984
1086.29	4.72352
1084.7	0
1083.11	1.57392
1081.52	-3.14725
1079.94	-1.57333
1078.35	4.7191
1076.76	12.5819
1075.17	7.86222
1073.58	3.1443
1071.99	3.14371
1070.4	15.7156
1068.8	4.7138
1067.21	14.1387
1065.62	14.1361
1064.03	12.5631
1062.44	1.57009
1060.84	7.84897
1059.25	-6.278
1057.66	4.70761
1056.07	9.41346
1054.47	1.56862
1052.88	3.13664
1051.28	1.56803
1049.69	12.5419
1048.09	1.56744
1046.5	0
1044.9	3.1337
1043.31	14.099
1041.71	9.39758
1040.11	10.9618
1038.52	-4.69703
1036.92	9.39229
1035.32	15.6509
1033.73	7.82397
1032.13	25.032
1030.53	14.0779
1028.93	10.9474
1027.33	9.38171
1025.73	23.4499
1024.13	23.4455
1022.53	18.7529
1020.93	18.7493
1019.33	7.81075
1017.73	17.1804
1016.13	21.8619
1014.53	23.4191
1012.93	20.2927
1011.33	21.8496
1009.72	24.9662
1008.12	40.5625
1006.52	20.2774
1004.92	31.1902
1003.31	23.3883
1001.71	24.9428
1000.11	31.1726
