3200.54	8.24991
3199.33	6.18744
3198.12	-12.3728
3196.9	-2.06178
3195.69	22.6758
3194.48	14.4276
3193.27	0
3192.05	10.302
3190.84	10.3002
3189.62	35.0149
3188.41	22.6529
3187.2	22.6491
3185.98	12.352
3184.77	10.2916
3183.55	22.6376
3182.34	20.5762
3181.12	41.1454
3179.91	24.6831
3178.69	8.22631
3177.48	14.3936
3176.26	16.4471
3175.04	18.4998
3173.83	20.5519
3172.61	16.4388
3171.39	4.109
3170.18	4.1083
3168.96	34.9147
3167.74	2.05346
3166.52	0
3165.31	16.4221
3164.09	18.4718
3162.87	14.3645
3161.65	18.4655
3160.43	14.3597
3159.21	6.1531
3157.99	24.6083
3156.78	30.7551
3155.56	14.35
3154.34	10.2483
3153.12	6.14791
3151.9	10.2448
3150.68	-14.3403
3149.46	-2.04827
3148.23	28.6709
3147.01	20.4757
3145.79	14.3306
3144.57	14.3282
3143.35	16.3723
3142.13	4.09238
3140.91	-6.13754
3139.68	2.0455
3138.46	20.4515
3137.24	38.8514
3136.02	20.4446
3134.79	12.2647
3133.57	24.5253
3132.35	14.304
3131.12	34.7324
3129.9	24.5128
3128.67	30.6359
3127.45	16.3364
3126.23	0
3125	4.08271
3123.78	18.3691
3122.55	-2.04067
3121.33	12.2419
3120.1	16.3198
3118.87	22.4359
3117.65	8.15714
3116.42	22.4283
3115.2	6.11579
3113.97	8.153
3112.74	2.03791
3111.52	4.07512
3110.29	12.2233
3109.06	14.2581
3107.83	0
3106.61	16.2895
3105.38	38.6809
3104.15	38.6744
3102.92	0
3101.69	18.3132
3100.46	22.3791
3099.23	4.06823
3098.01	12.2026
3096.78	-4.06685
3095.55	22.3639
3094.32	10.1637
3093.09	24.3887
3091.86	8.1282
3090.63	6.09512
3089.4	26.4077
3088.16	10.1551
3086.93	12.184
3085.7	12.182
3084.47	24.3598
3083.24	26.3853
3082.01	4.0586
3080.77	28.4054
3079.54	28.4005
3078.31	-6.0848
3077.08	18.2513
3075.84	18.2482
3074.61	6.0817
3073.38	18.242
3072.14	8.10619
3070.91	18.2358
3069.68	4.05172
3068.44	18.2297
3067.21	14.1762
3065.97	26.3228
3064.74	8.09795
3063.5	6.07243
3062.27	6.0714
3061.03	22.258
3059.8	22.2542
3058.56	12.1366
3057.32	24.2691
3056.09	24.265
3054.85	18.1957
3053.61	2.0214
3052.38	14.1474
3051.14	-4.04142
3049.9	6.06111
3048.66	10.1001
3047.43	-2.01968
3046.19	12.116
3044.95	-2.019
3043.71	12.1119
3042.47	20.1831
3041.23	12.1078
3040	32.282
3038.76	16.1383
3037.52	6.05082
3036.28	12.0996
3035.04	28.2276
3033.8	28.2228
3032.56	12.0934
3031.32	16.1218
3030.08	20.1489
3028.83	16.1164
3027.59	8.05681
3026.35	18.1247
3025.11	12.0811
3023.87	14.0922
3022.63	8.05133
3021.38	14.0874
3020.14	8.0486
3018.9	30.1771
3017.66	4.02293
3016.41	14.0779
3015.17	18.097
3013.93	22.1148
3012.68	16.0808
3011.44	16.078
3010.19	22.1035
3008.95	32.1451
3007.71	34.1484
3006.46	22.0923
3005.22	14.0563
3003.97	2.00771
3002.73	28.1031
3001.48	4.01404
3000.23	6.02004
2998.99	16.0507
2997.74	16.048
2996.49	4.01131
2995.25	30.0797
2994	14.0348
2992.75	24.0556
2991.51	12.0257
2990.26	0
2989.01	22.0397
2987.76	4.00653
2986.52	12.0176
2985.27	0
2984.02	18.0202
2982.77	10.0095
2981.52	26.0203
2980.27	12.0073
2979.02	36.0158
2977.77	12.0032
2976.52	16.0016
2975.27	29.9979
2974.02	25.9937
2972.77	0
2971.52	29.9825
2970.27	15.988
2969.02	11.9889
2967.77	13.9847
2966.52	21.9722
2965.26	7.98853
2964.01	5.99038
2962.76	11.9787
2961.51	17.965
2960.25	17.9619
2959	3.99086
2957.75	19.9509
2956.5	15.958
2955.24	3.98882
2953.99	3.98814
2952.73	9.96865
2951.48	15.9471
2950.23	9.96525
2948.97	21.9198
2947.72	7.96948
2946.46	19.9203
2945.21	21.9086
2943.95	19.9135
2942.7	9.95505
2941.44	23.888
2940.18	13.9323
2938.93	9.94995
2937.67	31.8344
2936.41	5.96793
2935.16	19.8897
2933.9	15.9091
2932.64	17.8946
2931.38	1.98795
2930.13	13.9133
2928.87	7.9491
2927.61	21.8563
2926.35	15.8928
2925.09	15.89
2923.83	25.8169
2922.58	13.899
2921.32	-7.94095
2920.06	17.8641
2918.8	11.9074
2917.54	29.7633
2916.28	1.98388
2915.02	-1.98354
2913.76	27.7649
2912.5	9.91432
2911.23	17.8427
2909.97	49.5547
2908.71	21.8003
2907.45	11.8891
2906.19	19.8117
2904.93	5.94249
2903.66	19.8049
2902.4	27.7222
2901.14	33.6569
2899.88	17.8153
2898.61	13.854
2897.35	27.7032
2896.09	-5.93538
2894.82	25.7156
2893.56	13.8445
2892.29	25.7068
2891.03	5.93132
2889.76	15.8142
2888.5	13.835
2887.23	11.8566
2885.97	25.6848
2884.7	29.6312
2883.44	11.8505
2882.17	17.7727
2880.9	13.8208
2879.64	3.94813
2878.37	11.8424
2877.1	25.654
2875.84	19.7305
2874.57	21.6998
2873.3	17.7514
2872.04	9.86018
2870.77	-1.9717
2869.5	21.685
2868.23	21.6813
2866.96	15.7655
2865.69	21.6738
2864.42	13.7901
2863.16	11.818
2861.89	13.7853
2860.62	9.84499
2859.35	7.87464
2858.08	15.7466
2856.81	11.8079
2855.54	15.7412
2854.26	29.5097
2852.99	27.5376
2851.72	21.633
2850.45	11.7978
2849.18	23.5915
2847.91	23.5875
2846.64	19.6529
2845.36	3.9299
2844.09	21.6107
2842.82	3.92855
2841.54	33.387
2840.27	13.7452
2839	13.7429
2837.72	17.6664
2836.45	21.5885
2835.18	7.84902
2833.9	23.543
2832.63	19.6158
2831.35	19.6124
2830.08	3.92182
2828.8	21.5663
2827.53	19.6023
2826.25	27.4386
2824.98	33.3126
2823.7	19.5923
2822.42	19.5889
2821.15	0
2819.87	7.83286
2818.59	-9.7894
2817.32	31.3207
2816.04	7.82883
2814.76	1.95687
2813.48	27.3915
2812.21	9.78099
2810.93	0
2809.65	11.7332
2808.37	7.82076
2807.09	19.5485
2805.81	9.77259
2804.53	33.2211
2803.25	7.81539
2801.97	31.2562
2800.69	15.6254
2799.41	23.4341
2798.13	19.525
2796.85	15.6173
2795.57	54.6513
2794.29	5.85449
2793.01	5.85348
2791.73	19.5083
2790.45	27.3069
2789.17	9.75077
2787.88	23.3978
2786.6	15.5959
2785.32	19.4915
2784.04	25.3346
2782.75	11.6909
2781.47	17.5333
2780.19	27.2693
2778.9	27.2646
2777.62	11.6828
2776.33	5.8404
2775.05	19.4647
2773.76	13.6229
2772.48	21.4038
2771.19	15.5637
2769.91	23.3415
2768.62	15.5583
2767.34	27.2224
2766.05	29.1618
2764.77	19.4379
2763.48	38.869
2762.19	13.6018
2760.91	23.3134
2759.62	17.482
2758.33	15.5369
2757.04	25.2431
2755.76	25.2388
2754.47	34.94
2753.18	31.0524
2751.89	36.8684
2750.6	29.1016
2749.31	32.9761
2748.03	32.9704
2746.74	23.2692
2745.45	27.1428
2744.16	40.7071
2742.87	27.1334
2741.58	17.4399
2740.29	48.4358
2739	42.6161
2737.71	36.7985
2736.41	40.665
2735.12	36.7858
2733.83	38.7152
2732.54	46.4503
2731.25	32.8966
2729.96	58.0428
2728.66	44.4918
2727.37	44.4841
2726.08	34.8076
2724.79	73.4701
2723.49	40.5949
2722.2	77.3103
2720.9	65.7024
2719.61	83.0799
2718.32	84.9973
2717.02	83.0512
2715.73	112.003
2714.43	115.845
2713.14	108.104
2711.84	133.176
2710.55	129.294
2709.25	183.295
2707.96	171.689
2706.66	212.163
2705.36	239.124
2704.07	227.515
2702.77	306.513
2701.47	291.041
2700.17	327.605
2698.88	344.89
2697.58	396.843
2696.28	417.962
2694.98	396.706
2693.69	402.414
2692.39	427.371
2691.09	471.566
2689.79	459.938
2688.49	440.618
2687.19	417.456
2685.89	425.078
2684.59	357.696
2683.29	336.484
2681.99	280.675
2680.69	326.757
2679.39	255.595
2678.09	236.336
2676.79	219.006
2675.48	167.107
2674.18	176.68
2672.88	174.73
2671.58	140.143
2670.28	138.2
2668.97	118.985
2667.67	99.7763
2666.37	115.107
2665.06	78.6426
2663.76	84.3823
2662.46	76.6979
2661.15	72.8504
2659.85	51.7531
2658.54	68.9922
2657.24	49.8191
2655.93	40.2315
2654.63	53.6328
2653.32	34.4722
2652.02	47.8698
2650.71	28.7169
2649.41	32.5402
2648.1	19.138
2646.79	36.3558
2645.49	30.6101
2644.18	36.3432
2642.87	19.1247
2641.56	24.8578
2640.26	34.4125
2638.95	28.6722
2637.64	30.5783
2636.33	19.1081
2635.02	13.3734
2633.71	5.73045
2632.41	17.1884
2631.1	13.3664
2629.79	26.7282
2628.48	38.1765
2627.17	17.1765
2625.86	19.0816
2624.55	22.894
2623.24	28.6125
2621.93	9.53586
2620.61	13.3479
2619.3	5.71953
2617.99	15.2494
2616.68	28.5877
2615.37	28.5828
2614.06	20.9571
2612.74	9.52428
2611.43	34.2815
2610.12	26.6587
2608.8	20.9425
2607.49	20.9389
2606.18	13.3224
2604.86	26.6402
2603.55	13.3178
2602.24	30.4354
2600.92	17.1169
2599.61	5.70465
2598.29	15.2098
2596.98	28.5134
2595.66	5.70168
2594.34	22.8028
2593.03	20.8989
2591.71	5.69871
2590.4	0
2589.08	17.0902
2587.76	13.2901
2586.45	13.2878
2585.13	-13.2854
2583.81	13.2831
2582.49	20.8699
2581.18	15.1754
2579.86	-9.483
2578.54	11.3776
2577.22	13.2716
2575.9	9.47806
2574.58	11.3717
2573.26	1.89495
2571.94	9.47311
2570.62	11.3658
2569.3	1.89396
2567.98	30.2981
2566.66	22.7197
2565.34	-9.46488
2564.02	17.0338
2562.7	-5.67695
2561.38	18.9199
2560.06	13.2416
2558.74	20.8046
2557.41	5.673
2556.09	11.344
2554.77	18.9034
2553.45	3.78002
2552.12	17.0071
2550.8	9.44677
2549.48	20.7793
2548.15	24.5531
2546.83	22.6604
2545.51	13.2163
2544.18	13.214
2542.86	9.4369
2541.53	16.9835
2540.21	13.2071
2538.88	13.2048
2537.56	5.6582
2536.23	30.1718
2534.9	11.3125
2533.58	22.621
2532.25	1.88475
2530.92	16.9598
2529.6	7.53638
2528.27	11.3026
2526.94	11.3006
2525.62	20.7142
2524.29	5.64834
2522.96	18.8245
2521.63	16.9391
2520.3	11.2908
2518.97	13.1703
2517.65	39.5039
2516.32	5.64244
2514.99	28.2073
2513.66	7.52062
2512.33	0
2511	24.4335
2509.67	15.0334
2508.34	15.0308
2507.01	22.5422
2505.67	9.39094
2504.34	9.3893
2503.01	30.0405
2501.68	24.4037
2500.35	20.6456
2499.02	24.3951
2497.68	1.87622
2496.35	0
2495.02	15.0045
2493.68	22.5029
2492.35	28.1237
2491.02	18.7458
2489.68	26.2396
2488.35	11.2436
2487.01	16.8624
2485.68	14.9862
2484.35	26.2213
2483.01	9.3631
2481.68	14.9783
2480.34	31.8234
2479	11.2298
2477.67	31.8123
2476.33	26.1938
2475	13.0946
2473.66	37.4066
2472.32	3.74001
2470.98	29.9148
2469.65	29.9096
2468.31	39.2495
2466.97	35.5052
2465.63	24.2888
2464.3	26.1526
2462.96	31.7512
2461.62	31.7456
2460.28	20.5377
2458.94	20.5341
2457.6	13.0649
2456.26	24.2591
2454.92	16.7918
2453.58	26.116
2452.24	18.651
2450.9	7.45911
2449.56	16.7801
2448.22	31.6901
2446.88	5.59139
2445.53	26.0886
2444.19	3.72629
2442.85	0
2441.51	14.8999
2440.17	14.8973
2438.82	14.8947
2437.48	9.30758
2436.14	18.6119
2434.79	9.30432
2433.45	22.3264
2432.11	0
2430.76	3.71977
2429.42	11.1574
2428.07	7.43694
2426.73	13.0124
2425.38	-5.57575
2424.04	13.0078
2422.69	-3.71586
2421.35	-1.85761
2420	27.8592
2418.65	-1.85695
2417.31	7.42651
2415.96	25.9882
2414.61	9.27989
2413.27	20.4122
2411.92	14.8426
2410.57	16.695
2409.22	0
2407.87	14.8348
2406.53	12.9782
2405.18	11.1222
2403.83	1.85338
2402.48	5.55915
2401.13	20.38
2399.78	14.8192
2398.43	22.2249
2397.08	-1.85175
2395.73	-5.55427
2394.38	16.6599
2393.03	-3.70155
2391.68	11.1027
2390.33	14.801
2388.98	16.6482
2387.62	9.24738
2386.27	3.6983
2384.92	16.6394
2383.57	11.091
2382.21	0
2380.86	16.6307
2379.51	35.103
2378.15	14.7776
2376.8	0
2375.45	11.0793
2374.09	20.3085
2372.74	-3.69181
2371.38	3.69116
2370.03	-1.84526
2368.67	11.0696
2367.32	29.5137
2365.96	-3.68857
2364.61	16.5956
2363.25	11.0618
2361.9	16.5898
2360.54	7.37195
2359.18	16.584
2357.83	23.9504
2356.47	9.21008
2355.11	16.5752
2353.75	31.3033
2352.39	-1.84104
2351.04	20.2479
2349.68	9.20198
2348.32	12.8805
2346.96	11.0385
2345.6	-5.51828
2344.24	23.9083
2342.88	-9.19389
2341.52	3.67691
2340.16	12.8669
2338.8	9.18904
2337.44	14.6999
2336.08	12.8601
2334.72	3.67367
2333.36	12.8556
2332	3.67238
2330.64	3.67173
2329.27	14.6844
2327.91	-7.34088
2326.55	3.66979
2325.19	7.3383
2323.82	7.337
2322.46	1.83393
2321.1	3.66721
2319.73	7.33313
2318.37	20.1625
2317	16.4937
2315.64	14.6585
2314.28	7.32796
2312.91	0
2311.55	-1.83134
2310.18	10.9861
2308.81	0
2307.45	21.9645
2306.08	9.15027
2304.72	9.14866
2303.35	14.6353
2301.98	3.65817
2300.62	12.8013
2299.25	3.65688
2297.88	14.6249
2296.51	20.1058
2295.15	23.7572
2293.78	-1.82715
2292.41	21.9219
2291.04	16.4386
2289.67	10.9571
2288.3	10.9552
2286.93	3.65108
2285.56	14.6017
2284.19	-7.29958
2282.82	-9.12287
2281.45	7.29701
2280.08	7.29572
2278.71	12.7653
2277.34	1.82329
2275.97	0
2274.6	0
2273.22	18.2232
2271.85	-7.28799
2270.48	0
2269.11	5.46406
2267.73	3.64207
2266.36	7.28284
2264.99	20.0243
2263.61	14.5605
2262.24	10.9185
2260.87	5.45827
2259.49	1.8191
2258.12	1.81878
2256.74	7.27384
2255.37	1.81814
2253.99	10.9069
2252.62	7.26998
2251.24	19.9889
2249.87	23.6191
2248.49	1.81653
2247.11	7.26484
2245.74	5.44767
2244.36	-1.81557
2242.98	23.5982
2241.6	14.5194
2240.23	9.07303
2238.85	16.3286
2237.47	21.7676
2236.09	19.9501
2234.71	19.9465
2233.33	10.878
2231.96	18.1268
2230.58	-1.81236
2229.2	1.81204
2227.82	9.05859
2226.44	-5.43419
2225.06	-5.43323
2223.68	12.6753
2222.29	10.8626
2220.91	16.291
2219.53	-10.8588
2218.15	-1.80947
2216.77	21.7098
2215.39	27.1325
2214	19.8936
2212.62	14.4655
2211.24	19.8866
2209.86	14.4604
2208.47	-7.22893
2207.09	9.03456
2205.7	12.6461
2204.32	14.4502
2202.94	-1.80595
2201.55	14.445
2200.17	9.02656
2198.78	23.4649
2197.4	18.0467
2196.01	21.6522
2194.63	3.60806
2193.24	3.60742
2191.85	5.41018
2190.47	7.21229
2189.08	9.01376
2187.69	12.617
2186.31	16.219
2184.92	16.2161
2183.53	30.6251
2182.14	0
2180.75	-1.80083
2179.37	0
2177.98	1.8002
2176.59	7.1995
2175.2	17.9956
2173.81	3.59847
2172.42	10.7935
2171.03	7.19439
2169.64	3.59656
2168.25	8.9898
2166.86	7.19056
2165.47	10.7839
2164.08	26.955
2162.68	19.7635
2161.29	3.59273
2159.9	8.98023
2158.51	8.97863
2157.12	12.5679
2155.72	17.9509
2154.33	19.7425
2152.94	-1.79445
2151.54	3.58826
2150.15	10.7629
2148.76	10.761
2147.36	7.1727
2145.97	8.96429
2144.57	1.79254
2143.18	0
2141.78	17.919
2140.39	1.79158
2138.99	25.0777
2137.6	10.7457
2136.2	3.58125
2134.8	-1.79031
2133.41	-7.15996
2132.01	16.107
2130.61	-5.36806
2129.22	26.8355
2127.82	21.4646
2126.42	8.942
2125.02	-1.78808
2123.62	3.57553
2122.22	17.8744
2120.83	14.297
2119.43	10.7209
2118.03	7.14596
2116.63	5.35852
2115.23	5.35756
2113.83	16.0698
2112.43	-3.57044
2111.03	19.6339
2109.63	-7.13833
2108.22	7.13706
2106.82	19.6234
2105.42	14.269
2104.02	3.56663
2102.62	14.264
2101.21	12.4787
2099.81	12.4765
2098.41	5.34613
2097.01	3.56345
2095.6	28.5025
2094.2	7.12436
2092.8	12.4654
2091.39	24.9264
2089.99	14.2411
2088.58	7.11928
2087.18	7.11801
2085.77	19.571
2084.37	12.4521
2082.96	10.6713
2081.56	5.3347
2080.15	7.11167
2078.74	17.776
2077.34	33.7684
2075.93	17.7697
2074.52	14.2132
2073.11	10.658
2071.71	14.2081
2070.3	15.9813
2068.89	14.2031
2067.48	-7.10026
2066.07	3.5495
2064.66	10.6466
2063.26	14.1929
2061.85	7.0952
2060.44	10.6409
2059.03	15.9585
2057.62	23.047
2056.21	10.6352
2054.8	15.9499
2053.38	3.5438
2051.97	17.7158
2050.56	10.6276
2049.15	3.5419
2047.74	-3.54127
2046.33	14.1625
2044.91	-5.31001
2043.5	1.76969
2042.09	8.84685
2040.68	-3.53811
2039.26	14.1499
2037.85	14.1474
2036.43	7.07242
2035.02	-5.30337
2033.61	3.53495
2032.19	1.76716
2030.78	-1.76684
2029.36	19.4318
2027.95	0
2026.53	3.53179
2025.11	-7.06231
2023.7	21.1832
2022.28	31.769
2020.86	5.29389
2019.45	12.3502
2018.03	10.584
2016.61	0
2015.19	-10.5802
2013.78	-3.52611
2012.36	10.5764
2010.94	24.6739
2009.52	8.81054
2008.1	3.52358
2006.68	-5.28443
2005.26	21.1339
2003.84	5.28254
2002.42	12.3237
2001	12.3215
1999.58	8.79951
1998.16	12.3171
1996.74	19.352
1995.32	-5.27687
1993.9	12.3105
1992.48	1.75833
1991.05	12.3061
1989.63	-1.7577
1988.21	14.059
1986.79	7.02827
1985.36	3.5135
1983.94	19.3208
1982.52	8.78061
1981.09	5.26742
1979.67	7.02197
1978.24	12.2862
1976.82	17.5486
1975.39	17.5455
1973.97	12.2796
1972.54	-1.75392
1971.12	-5.26082
1969.69	26.2994
1968.27	12.2708
1966.84	19.2793
1965.41	5.25704
1963.99	-7.00814
1962.56	19.2689
1961.13	22.7683
1959.7	21.0131
1958.28	-1.75078
1956.85	10.5028
1955.42	-1.75015
1953.99	12.2488
1952.56	17.4952
1951.13	-1.74921
1949.7	8.74446
1948.27	12.2401
1946.84	10.4896
1945.41	26.2193
1943.98	10.4858
1942.55	6.98929
1941.12	0
1939.69	3.49339
1938.26	-3.49277
1936.83	20.9528
1935.39	-3.49151
1933.96	12.2181
1932.53	8.72564
1931.1	31.4067
1929.66	5.2335
1928.23	8.72094
1926.8	3.48775
1925.36	8.71781
1923.93	10.4595
1922.49	13.9435
1921.06	19.1688
1919.62	13.9385
1918.19	-1.74199
1916.75	5.22505
1915.32	3.48274
1913.88	-8.70528
1912.45	17.4074
1911.01	6.96172
1909.57	22.6215
1908.14	-10.4388
1906.7	33.0503
1905.26	-10.4351
1903.82	17.3886
1902.39	15.647
1900.95	8.6912
1899.51	-6.95171
1898.07	12.1633
1896.63	-3.4746
1895.19	26.0548
1893.75	17.3668
1892.31	27.7818
1890.87	15.6245
1889.43	8.67869
1887.99	5.20628
1886.55	-5.20534
1885.11	-5.2044
1883.67	8.67244
1882.23	5.20253
1880.79	29.4757
1879.34	1.73355
1877.9	19.0656
1876.46	-6.93171
1875.02	10.3957
1873.57	0
1872.13	15.5879
1870.69	5.19504
1869.24	0
1867.8	10.3863
1866.35	-13.8459
1864.91	13.8434
1863.46	6.92047
1862.02	12.1086
1860.57	6.91798
1859.13	0
1857.68	10.3732
1856.23	5.18568
1854.79	8.64124
1853.34	19.0073
1851.89	8.63812
1850.45	15.5458
1849	6.90801
1847.55	17.2669
1846.1	1.72638
1844.65	13.8085
1843.21	10.3545
1841.76	5.17633
1840.31	5.1754
1838.86	5.17446
1837.41	6.89804
1835.96	3.4484
1834.51	15.515
1833.06	29.3008
1831.61	10.3396
1830.16	-1.72295
1828.7	17.2264
1827.25	-1.72233
1825.8	6.88808
1824.35	13.7737
1822.9	13.7712
1821.44	22.3741
1819.99	18.9285
1818.54	12.0433
1817.09	-10.3209
1815.63	8.59922
1814.18	-5.1586
1812.72	-8.59612
1811.27	5.15674
1809.81	1.7186
1808.36	1.71829
1806.9	17.1798
1805.45	0
1803.99	13.7389
1802.54	-10.3023
1801.08	5.15022
1799.62	6.86571
1798.17	5.14835
1796.71	17.1581
1795.25	10.293
1793.8	6.86075
1792.34	-5.14463
1790.88	5.1437
1789.42	0
1787.96	0
1786.5	13.7091
1785.04	5.13998
1783.59	1.71302
1782.13	23.9779
1780.67	8.56198
1779.21	8.56043
1777.75	8.55888
1776.28	3.42293
1774.82	3.42231
1773.36	3.42169
1771.9	8.55268
1770.44	-1.71023
1768.98	11.9694
1767.51	18.8057
1766.05	20.5116
1764.59	11.9629
1763.13	5.12604
1761.66	15.3753
1760.2	0
1758.73	22.2007
1757.27	6.82976
1755.81	15.3642
1754.34	-18.775
1752.88	0
1751.41	-6.82481
1749.95	-5.11768
1748.48	3.41117
1747.01	15.3475
1745.55	8.52483
1744.08	17.0466
1742.61	6.81739
1741.15	-1.70404
1739.68	5.11119
1738.21	11.9239
1736.74	3.40622
1735.28	0
1733.81	23.8349
1732.34	-1.70218
1730.87	-6.8075
1729.4	13.6125
1727.93	10.2076
1726.46	6.8038
1724.99	13.6051
1723.52	1.70033
1722.05	-17.0002
1720.58	5.09915
1719.11	8.49703
1717.64	11.8937
1716.17	11.8915
1714.69	8.4924
1713.22	13.5854
1711.75	10.1872
1710.28	18.6731
1708.8	1.69725
1707.33	5.09082
1705.86	6.78652
1704.38	5.08897
1702.91	20.3522
1701.43	10.1742
1699.96	0
1698.49	10.1705
1697.01	-6.77913
1695.53	11.8613
1694.06	8.47083
1692.58	15.2447
1691.11	3.3871
1689.63	-6.77297
1688.15	3.38587
1686.68	22.0041
1685.2	8.46159
1683.72	10.1521
1682.24	6.76681
1680.77	20.2967
1679.29	-3.38218
1677.81	18.5986
1676.33	-6.76189
1674.85	18.5918
1673.37	8.44929
1671.89	0
1670.41	10.1355
1668.93	8.44467
1667.45	-3.37725
1665.97	5.06496
1664.49	6.75205
1663.01	3.37541
1661.53	-1.6874
1660.04	6.74836
1658.56	-3.37357
1657.08	30.3566
1655.6	5.05851
1654.11	11.801
1652.63	16.8556
1651.15	-3.3705
1649.66	16.8494
1648.18	11.7924
1646.7	10.106
1645.21	0
1643.73	6.73485
1642.24	6.73363
1640.76	8.4155
1639.27	37.0214
1637.78	5.04746
1636.3	21.8683
1634.81	-10.0912
1633.33	0
1631.84	3.36252
1630.35	15.1286
1628.86	13.4452
1627.38	16.8034
1625.89	3.36007
1624.4	5.03918
1622.91	10.0765
1621.42	10.0747
1619.93	28.5397
1618.44	8.39251
1616.95	1.6782
1615.46	8.38945
1613.97	6.71033
1612.48	1.67728
1610.99	18.4467
1609.5	13.4133
1608.01	16.7636
1606.52	23.4647
1605.03	23.4605
1603.53	21.7807
1602.04	18.4265
1600.55	11.7238
1599.06	40.1886
1597.56	63.6202
1596.07	78.6738
1594.58	90.3747
1593.08	105.418
1591.59	128.821
1590.09	127.124
1588.6	118.739
1587.1	123.734
1585.61	95.291
1584.11	73.5445
1582.62	61.8329
1581.12	38.4297
1579.62	53.4576
1578.13	31.7346
1576.63	20.0393
1575.13	20.0356
1573.63	20.0319
1572.14	23.3663
1570.64	15.0185
1569.14	3.33683
1567.64	20.0173
1566.14	10.0068
1564.64	21.6775
1563.14	11.6703
1561.64	15.002
1560.14	4.99975
1558.64	13.3302
1557.14	28.3215
1555.64	14.991
1554.14	23.3151
1552.64	8.32529
1551.14	9.98852
1549.63	3.3289
1548.13	14.9773
1546.63	9.98303
1545.13	21.6259
1543.62	19.9588
1542.12	11.6405
1540.62	-3.32524
1539.11	13.2985
1537.61	8.31005
1536.1	-4.98512
1534.6	4.98421
1533.09	11.6277
1531.59	-3.32159
1530.08	1.66049
1528.58	13.2815
1527.07	16.5988
1525.57	8.29788
1524.06	14.9334
1522.55	1.65897
1521.04	3.31733
1519.54	14.9252
1518.03	14.9225
1516.52	19.893
1515.01	-1.65745
1513.5	4.97143
1512	14.9116
1510.49	14.9088
1508.98	8.28116
1507.47	8.27964
1505.96	1.65562
1504.45	13.2426
1502.94	14.8951
1501.43	-1.65471
1499.91	4.96323
1498.4	-4.96232
1496.89	4.96141
1495.38	4.9605
1493.87	3.30639
1492.35	8.26446
1490.84	6.61035
1489.33	11.566
1487.82	8.2599
1486.3	-4.95503
1484.79	-9.90825
1483.27	6.60428
1481.76	13.2061
1480.24	9.90279
1478.73	23.1023
1477.21	-9.89915
1475.7	0
1474.18	9.89551
1472.67	13.1916
1471.15	19.7837
1469.63	6.59337
1468.12	8.2402
1466.6	4.94321
1465.08	0
1463.56	3.29426
1462.05	6.58731
1460.53	4.93958
1459.01	14.816
1457.49	11.5214
1455.97	11.5193
1454.45	-3.29063
1452.93	6.58005
1451.41	4.93413
1449.89	-3.28881
1448.37	13.1528
1446.85	8.21901
1445.33	3.287
1443.81	1.6432
1442.29	0
1440.76	-3.28518
1439.24	18.0652
1437.72	6.56795
1436.2	13.1335
1434.67	-4.92415
1433.15	11.4876
1431.63	11.4854
1430.1	11.4833
1428.58	-3.28035
1427.05	6.55949
1425.53	6.55828
1424	13.1141
1422.48	1.63897
1420.95	14.748
1419.43	16.3836
1417.9	3.27612
1416.37	8.18879
1414.85	3.27491
1413.32	21.283
1411.79	-1.63685
1410.27	16.3655
1408.74	0
1407.21	8.17974
1405.68	4.90694
1404.15	13.0828
1402.62	-1.63504
1401.09	11.4432
1399.56	14.71
1398.03	6.53655
1396.5	-1.63384
1394.97	0
1393.44	27.765
1391.91	-1.63293
1390.38	3.26526
1388.85	8.16165
1387.32	-9.79217
1385.79	13.0538
1384.25	19.5771
1382.72	4.89338
1381.19	4.89247
1379.65	0
1378.12	-4.89067
1376.59	14.6693
1375.05	22.8147
1373.52	17.9225
1371.98	14.6612
1370.45	3.25744
1368.91	0
1367.38	13.0249
1365.84	-1.62782
1364.31	17.9027
1362.77	16.2721
1361.23	9.76148
1359.7	1.62661
1358.16	14.6368
1356.62	16.2601
1355.08	-4.87713
1353.55	6.50164
1352.01	27.6269
1350.47	11.3737
1348.93	8.12255
1347.39	12.9937
1345.85	1.62391
1344.31	4.87082
1342.77	16.2331
1341.23	-3.24602
1339.69	17.8498
1338.15	4.86722
1336.61	0
1335.07	14.5963
1333.52	8.10753
1331.98	9.72724
1330.44	-1.62091
1328.9	-4.86182
1327.35	11.3421
1325.81	3.24001
1324.27	8.09854
1322.72	-6.47763
1321.18	11.3338
1319.64	19.4257
1318.09	12.9481
1316.55	3.23642
1315	11.3254
1313.46	1.61761
1311.91	16.1731
1310.36	12.9361
1308.82	9.70026
1307.27	1.61641
1305.72	9.69667
1304.18	9.69487
1302.63	8.07756
1301.08	6.46085
1299.53	17.7641
1297.98	14.5315
1296.44	3.22863
1294.89	0
1293.34	6.45487
1291.79	6.45367
1290.24	-6.45247
1288.69	16.1282
1287.14	4.83756
1285.59	19.3467
1284.04	24.1788
1282.49	16.1162
1280.93	-3.22265
1279.38	14.4992
1277.83	8.05363
1276.28	8.05214
1274.72	4.83039
1273.17	9.65898
1271.62	11.2667
1270.06	14.4831
1268.51	1.60893
1266.96	6.43454
1265.4	4.82501
1263.85	3.21608
1262.29	16.0774
1260.74	4.82232
1259.18	8.03571
1257.63	4.82053
1256.07	14.4589
1254.51	12.85
1252.96	20.8773
1251.4	12.8452
1249.84	1.60535
1248.29	12.8404
1246.73	4.81427
1245.17	4.81337
1243.61	8.02079
1242.05	-1.60386
1240.49	-1.60356
1238.93	0
1237.37	4.8089
1235.81	16.0267
1234.25	12.819
1232.69	4.80622
1231.13	1.60177
1229.57	14.4133
1228.01	-1.60118
1226.45	-8.00441
1224.89	3.20117
1223.32	-8.00143
1221.76	4.79996
1220.2	-1.59969
1218.64	3.19879
1217.07	20.7882
1215.51	11.1916
1213.95	6.394
1212.38	19.1784
1210.82	6.39162
1209.25	4.79282
1207.69	20.765
1206.12	7.98506
1204.56	11.177
1202.99	3.19284
1201.42	1.59612
1199.86	9.57494
1198.29	14.3597
1196.72	-4.78569
1195.15	-4.7848
1193.59	-1.59463
1192.02	-3.18868
1190.45	0
1188.88	1.59374
1187.31	1.59345
1185.74	4.77945
1184.17	-1.59285
1182.6	9.55534
1181.03	14.3303
1179.46	3.18392
1177.89	3.18333
1176.32	0
1174.75	11.1375
1173.18	19.0893
1171.61	0
1170.04	7.95091
1168.46	3.17977
1166.89	0
1165.32	14.3036
1163.74	6.35598
1162.17	19.0644
1160.6	-1.5884
1159.02	-1.58811
1157.45	-7.93905
1155.87	11.1126
1154.3	1.58722
1152.72	4.76076
1151.15	-3.17325
1149.57	6.34531
1147.99	15.8603
1146.42	15.8574
1144.84	4.75632
1143.26	1.58514
1141.69	0
1140.11	0
1138.53	-4.75277
1136.95	22.1754
1135.37	-3.16733
1133.79	19.0004
1132.22	3.16615
1130.64	-7.91388
1129.06	4.74744
1127.48	7.91093
1125.9	3.16378
1124.32	1.58159
1122.73	3.1626
1121.15	3.16201
1119.57	-4.74212
1117.99	20.5453
1116.41	6.32046
1114.82	7.8991
1113.24	3.15905
1111.66	-11.0546
1110.08	3.15787
1108.49	-1.57864
1106.91	-1.57834
1105.32	-1.57805
1103.74	1.57775
1102.15	15.7746
1100.57	18.9259
1098.98	17.3455
1097.4	4.72972
1095.81	-6.30511
1094.23	-1.57598
1092.64	17.3326
1091.05	-3.15078
1089.47	1.5751
1087.88	7.87401
1086.29	1.57451
1084.7	0
1083.11	-4.72175
1081.52	-4.72087
1079.94	7.86664
1078.35	-4.7191
1076.76	9.43643
1075.17	12.5795
1073.58	7.86075
1071.99	3.14371
1070.4	11.0009
1068.8	6.28506
1067.21	9.42583
1065.62	10.9947
1064.03	9.42229
1062.44	9.42053
1060.84	9.41876
1059.25	12.556
1057.66	1.5692
1056.07	9.41346
1054.47	6.27446
1052.88	9.40993
1051.28	4.70408
1049.69	1.56773
1048.09	-1.56744
1046.5	7.83573
1044.9	-3.1337
1043.31	1.56656
1041.71	1.56626
1040.11	9.39581
1038.52	3.13135
1036.92	1.56538
1035.32	15.6509
1033.73	7.82397
1032.13	6.258
1030.53	7.82103
1028.93	17.203
1027.33	23.4543
1025.73	6.2533
1024.13	21.8824
1022.53	21.8783
1020.93	17.1869
1019.33	15.6215
1017.73	12.4949
1016.13	21.8619
1014.53	0
1012.93	10.9268
1011.33	7.80342
1009.72	28.087
1008.12	28.0817
1006.52	18.7176
1004.92	26.5117
1003.31	17.1514
1001.71	20.266
1000.11	24.9381
