3200.54	10.3124
3199.33	18.5623
3198.12	26.8077
3196.9	22.6796
3195.69	14.4301
3194.48	8.24436
3193.27	30.9111
3192.05	18.5436
3190.84	-4.1201
3189.62	10.2985
3188.41	18.5342
3187.2	20.5901
3185.98	18.5279
3184.77	22.6414
3183.55	43.2173
3182.34	16.461
3181.12	-4.11454
3179.91	18.5123
3178.69	26.7355
3177.48	-2.05623
3176.26	32.8942
3175.04	4.11108
3173.83	26.7175
3172.61	10.2742
3171.39	8.21799
3170.18	18.4874
3168.96	18.4842
3167.74	14.3742
3166.52	18.478
3165.31	6.1583
3164.09	24.629
3162.87	8.20829
3161.65	0
3160.43	10.2569
3159.21	10.2552
3157.99	24.6083
3156.78	12.3021
3155.56	34.8499
3154.34	18.4469
3153.12	2.0493
3151.9	12.2937
3150.68	12.2917
3149.46	16.3861
3148.23	22.5271
3147.01	40.9515
3145.79	12.2834
3144.57	10.2344
3143.35	28.6515
3142.13	18.4157
3140.91	16.3668
3139.68	12.273
3138.46	14.3161
3137.24	0
3136.02	20.4446
3134.79	20.4412
3133.57	8.17509
3132.35	10.2171
3131.12	28.6032
3129.9	16.3419
3128.67	10.212
3127.45	12.2523
3126.23	18.3753
3125	22.4549
3123.78	20.4101
3122.55	22.4473
3121.33	14.2822
3120.1	14.2798
3118.87	36.7133
3117.65	20.3929
3116.42	28.5452
3115.2	20.386
3113.97	4.0765
3112.74	-16.3032
3111.52	10.1878
3110.29	10.1861
3109.06	16.295
3107.83	6.10958
3106.61	18.3256
3105.38	18.3225
3104.15	10.1775
3102.92	26.4569
3101.69	14.2436
3100.46	14.2412
3099.23	10.1706
3098.01	22.3715
3096.78	24.4011
3095.55	18.2977
3094.32	14.2292
3093.09	22.3563
3091.86	14.2243
3090.63	10.1585
3089.4	4.06272
3088.16	24.3722
3086.93	12.184
3085.7	14.2123
3084.47	14.2099
3083.24	22.3261
3082.01	12.1758
3080.77	8.11582
3079.54	36.515
3078.31	2.02827
3077.08	28.3909
3075.84	12.1655
3074.61	20.2723
3073.38	18.242
3072.14	34.4513
3070.91	-8.10482
3069.68	20.2586
3068.44	36.4593
3067.21	8.10069
3065.97	18.2235
3064.74	18.2204
3063.5	34.4104
3062.27	-4.0476
3061.03	22.258
3059.8	2.02311
3058.56	-12.1366
3057.32	14.157
3056.09	26.2871
3054.85	30.3261
3053.61	12.1284
3052.38	34.3579
3051.14	14.145
3049.9	18.1833
3048.66	22.2203
3047.43	0
3046.19	22.2127
3044.95	40.3799
3043.71	20.1865
3042.47	28.2564
3041.23	16.1438
3040	26.2291
3038.76	18.1556
3037.52	24.2033
3036.28	14.1162
3035.04	36.2926
3033.8	4.03183
3032.56	16.1246
3031.32	16.1218
3030.08	36.268
3028.83	30.2182
3027.59	20.142
3026.35	18.1247
3025.11	16.1081
3023.87	2.01318
3022.63	38.2438
3021.38	4.02498
3020.14	36.2187
3018.9	44.2598
3017.66	10.0573
3016.41	24.1335
3015.17	10.0539
3013.93	14.0731
3012.68	8.04039
3011.44	24.1171
3010.19	6.02824
3008.95	2.00907
3007.71	10.0437
3006.46	16.0671
3005.22	16.0644
3003.97	4.01541
3002.73	18.0663
3001.48	22.0772
3000.23	34.1136
2998.99	20.0634
2997.74	22.066
2996.49	2.00566
2995.25	14.0372
2994	8.01989
2992.75	30.0695
2991.51	2.00429
2990.26	8.0158
2989.01	26.0469
2987.76	14.0229
2986.52	20.0293
2985.27	0
2984.02	20.0224
2982.77	16.0152
2981.52	6.00469
2980.27	6.00366
2979.02	30.0132
2977.77	12.0032
2976.52	20.002
2975.27	1.99986
2974.02	15.9961
2972.77	29.9876
2971.52	7.99534
2970.27	9.99248
2969.02	9.99077
2967.77	9.98907
2966.52	21.9722
2965.26	-9.98566
2964.01	25.9583
2962.76	0
2961.51	17.965
2960.25	23.9493
2959	15.9634
2957.75	17.9558
2956.5	13.9633
2955.24	15.9553
2953.99	25.9229
2952.73	25.9185
2951.48	15.9471
2950.23	3.9861
2948.97	1.99271
2947.72	0
2946.46	25.8964
2945.21	19.9169
2943.95	-7.9654
2942.7	13.9371
2941.44	7.96268
2940.18	19.9033
2938.93	13.9299
2937.67	19.8965
2936.41	9.94656
2935.16	21.8787
2933.9	19.8863
2932.64	11.9298
2931.38	19.8795
2930.13	1.98761
2928.87	19.8727
2927.61	31.791
2926.35	21.8526
2925.09	17.8763
2923.83	23.831
2922.58	7.94231
2921.32	31.7638
2920.06	31.7584
2918.8	15.8765
2917.54	31.7475
2916.28	11.9033
2915.02	5.95063
2913.76	33.7145
2912.5	31.7258
2911.23	21.8078
2909.97	3.96437
2908.71	27.7459
2907.45	25.7596
2906.19	5.94351
2904.93	25.7508
2903.66	0
2902.4	19.8015
2901.14	5.93945
2899.88	9.89738
2898.61	13.854
2897.35	19.788
2896.09	21.7631
2894.82	1.97812
2893.56	27.689
2892.29	1.97745
2891.03	5.93132
2889.76	17.7909
2888.5	9.88215
2887.23	7.90437
2885.97	9.87877
2884.7	15.8033
2883.44	19.7508
2882.17	27.6464
2880.9	9.87201
2879.64	13.8184
2878.37	27.6322
2877.1	19.7339
2875.84	-3.9461
2874.57	17.7544
2873.3	25.6409
2872.04	17.7483
2870.77	21.6887
2869.5	19.7136
2868.23	19.7102
2866.96	17.7362
2865.69	15.7628
2864.42	17.7301
2863.16	3.93935
2861.89	9.84667
2860.62	21.659
2859.35	15.7493
2858.08	11.8099
2856.81	13.7759
2855.54	31.4824
2854.26	3.93462
2852.99	11.8018
2851.72	9.83318
2850.45	13.7641
2849.18	11.7958
2847.91	9.82812
2846.64	-3.93057
2845.36	21.6145
2844.09	21.6107
2842.82	27.4999
2841.54	0
2840.27	-11.7816
2839	19.6327
2837.72	15.7034
2836.45	17.6633
2835.18	13.7358
2833.9	19.6192
2832.63	-3.92316
2831.35	5.88373
2830.08	11.7654
2828.8	0
2827.53	-3.92047
2826.25	3.9198
2824.98	17.6361
2823.7	27.4292
2822.42	9.79444
2821.15	9.79276
2819.87	7.83286
2818.59	7.83152
2817.32	19.5754
2816.04	17.6149
2814.76	1.95687
2813.48	39.1307
2812.21	7.82479
2810.93	29.3379
2809.65	1.95553
2808.37	23.4623
2807.09	17.5937
2805.81	19.5452
2804.53	7.81673
2803.25	25.4
2801.97	5.86053
2800.69	7.8127
2799.41	35.1511
2798.13	19.525
2796.85	9.76084
2795.57	5.8555
2794.29	25.3695
2793.01	17.5604
2791.73	19.5083
2790.45	13.6534
2789.17	21.4517
2787.88	-5.84946
2786.6	25.3433
2785.32	19.4915
2784.04	-3.89762
2782.75	9.74239
2781.47	-7.79257
2780.19	-3.89561
2778.9	11.6848
2777.62	-13.63
2776.33	9.73401
2775.05	7.78586
2773.76	5.83839
2772.48	29.1869
2771.19	0
2769.91	27.2318
2768.62	25.2823
2767.34	9.72228
2766.05	25.2736
2764.77	-5.83136
2763.48	15.5476
2762.19	9.71558
2760.91	21.3706
2759.62	-7.76979
2758.33	11.6527
2757.04	7.76711
2755.76	7.76577
2754.47	32.9989
2753.18	32.9932
2751.89	27.1662
2750.6	19.4011
2749.31	21.3375
2748.03	23.2732
2746.74	13.5737
2745.45	11.6326
2744.16	13.569
2742.87	-3.8762
2741.58	17.4399
2740.29	23.2492
2739	23.2452
2737.71	1.93676
2736.41	9.68215
2735.12	27.1053
2733.83	29.0364
2732.54	9.67714
2731.25	15.4807
2729.96	11.6086
2728.66	5.80328
2727.37	3.86818
2726.08	9.66879
2724.79	17.4008
2723.49	15.4647
2722.2	3.86551
2720.9	36.716
2719.61	7.72836
2718.32	21.2493
2717.02	11.5885
2715.73	-11.5865
2714.43	1.93076
2713.14	27.0259
2711.84	-7.72036
2710.55	-11.5785
2709.25	7.71769
2707.96	9.64545
2706.66	15.43
2705.36	17.3558
2704.07	1.92809
2702.77	-19.2776
2701.47	28.9113
2700.17	9.63545
2698.88	25.0478
2697.58	9.63212
2696.28	3.85218
2694.98	7.70303
2693.69	0
2692.39	0
2691.09	7.69904
2689.79	1.92443
2688.49	15.3928
2687.19	7.69505
2685.89	11.5406
2684.59	11.5386
2683.29	13.4593
2681.99	-9.61216
2680.69	21.1431
2679.39	7.68707
2678.09	24.9786
2676.79	19.211
2675.48	1.92077
2674.18	1.92044
2672.88	7.68042
2671.58	7.67909
2670.28	-7.67776
2668.97	21.1102
2667.67	19.1878
2666.37	26.8582
2665.06	15.3449
2663.76	7.67112
2662.46	19.1745
2661.15	24.9225
2659.85	17.251
2658.54	9.58226
2657.24	19.1612
2655.93	21.0737
2654.63	-1.91546
2653.32	24.8966
2652.02	7.65917
2650.71	0
2649.41	19.1413
2648.1	15.3104
2646.79	11.4808
2645.49	1.91313
2644.18	13.3896
2642.87	7.64988
2641.56	9.5607
2640.26	24.8535
2638.95	30.5836
2637.64	19.1115
2636.33	34.3947
2635.02	19.1048
2633.71	22.9218
2632.41	13.3687
2631.1	1.90949
2629.79	17.1824
2628.48	7.63531
2627.17	-5.72549
2625.86	11.449
2624.55	9.53917
2623.24	24.7975
2621.93	3.81434
2620.61	7.62736
2619.3	19.0651
2617.99	9.5309
2616.68	3.8117
2615.37	0
2614.06	26.6726
2612.74	26.668
2611.43	19.0453
2610.12	19.042
2608.8	13.3271
2607.49	15.2283
2606.18	-11.4192
2604.86	7.61149
2603.55	17.1229
2602.24	15.2177
2600.92	9.50941
2599.61	28.5233
2598.29	24.7159
2596.98	9.50446
2595.66	1.90056
2594.34	36.1044
2593.03	-1.8999
2591.71	11.3974
2590.4	26.5894
2589.08	15.1913
2587.76	-1.89858
2586.45	-3.7965
2585.13	5.69376
2583.81	13.2831
2582.49	15.1781
2581.18	24.6601
2579.86	13.2762
2578.54	7.58508
2577.22	5.68782
2575.9	1.89561
2574.58	9.47641
2573.26	3.7899
2571.94	17.0516
2570.62	5.68288
2569.3	11.3638
2567.98	3.78727
2566.66	22.7197
2565.34	22.7157
2564.02	5.67794
2562.7	17.0309
2561.38	-1.89199
2560.06	20.8082
2558.74	13.2393
2557.41	0
2556.09	11.344
2554.77	11.342
2553.45	24.5702
2552.12	15.1175
2550.8	20.7829
2549.48	1.88903
2548.15	15.1096
2546.83	1.88837
2545.51	15.1043
2544.18	30.2034
2542.86	3.77476
2541.53	9.43526
2540.21	0
2538.88	28.2959
2537.56	18.8607
2536.23	16.9716
2534.9	-3.77082
2533.58	7.54032
2532.25	18.8475
2530.92	20.7287
2529.6	1.88409
2528.27	22.6052
2526.94	15.0675
2525.62	9.41555
2524.29	26.3589
2522.96	5.64736
2521.63	30.114
2520.3	18.818
2518.97	13.1703
2517.65	28.2171
2516.32	7.52325
2514.99	9.40242
2513.66	28.2023
2512.33	22.5579
2511	37.59
2509.67	7.51669
2508.34	-3.75769
2507.01	15.0281
2505.67	-5.63456
2504.34	22.5343
2503.01	20.6529
2501.68	13.1404
2500.35	9.38439
2499.02	7.5062
2497.68	1.87622
2496.35	24.3866
2495.02	9.37783
2493.68	5.62572
2492.35	7.49965
2491.02	18.7458
2489.68	20.6168
2488.35	13.1175
2487.01	18.736
2485.68	11.2396
2484.35	3.7459
2483.01	7.49048
2481.68	5.61688
2480.34	16.8477
2479	13.1015
2477.67	18.7131
2476.33	-1.87098
2475	3.74132
2473.66	24.3143
2472.32	14.96
2470.98	9.34838
2469.65	5.60805
2468.31	11.2141
2466.97	16.8183
2465.63	14.947
2464.3	13.0763
2462.96	-11.2063
2461.62	3.73478
2460.28	9.33531
2458.94	5.60021
2457.6	11.1985
2456.26	5.59825
2454.92	1.86576
2453.58	7.46172
2452.24	-5.59531
2450.9	18.6478
2449.56	11.1867
2448.22	5.59237
2446.88	-13.0466
2445.53	9.31736
2444.19	7.45258
2442.85	7.45128
2441.51	22.3499
2440.17	14.8973
2438.82	-5.58552
2437.48	5.58455
2436.14	14.8895
2434.79	27.9129
2433.45	24.187
2432.11	24.1827
2430.76	0
2429.42	7.43824
2428.07	7.43694
2426.73	16.7302
2425.38	9.29291
2424.04	11.1495
2422.69	9.28965
2421.35	0
2420	5.57184
2418.65	14.8556
2417.31	12.9964
2415.96	20.4193
2414.61	11.1359
2413.27	22.2678
2411.92	-5.56598
2410.57	7.42001
2409.22	3.70935
2407.87	7.4174
2406.53	-1.85403
2405.18	16.6833
2403.83	5.56013
2402.48	12.9714
2401.13	3.70545
2399.78	3.7048
2398.43	14.8166
2397.08	7.407
2395.73	1.85142
2394.38	7.4044
2393.03	-1.85078
2391.68	7.4018
2390.33	14.801
2388.98	9.249
2387.62	5.54843
2386.27	12.9441
2384.92	1.84883
2383.57	1.8485
2382.21	14.7854
2380.86	1.84785
2379.51	24.0179
2378.15	-7.38881
2376.8	11.0813
2375.45	-3.69311
2374.09	-1.84623
2372.74	11.0754
2371.38	-11.0735
2370.03	5.53577
2368.67	0
2367.32	0
2365.96	18.4428
2364.61	16.5956
2363.25	23.9673
2361.9	-5.52994
2360.54	0
2359.18	20.2693
2357.83	35.0045
2356.47	5.52605
2355.11	18.4169
2353.75	0
2352.39	23.9336
2351.04	25.7701
2349.68	25.7656
2348.32	7.36029
2346.96	12.8782
2345.6	14.7154
2344.24	7.35641
2342.88	14.7102
2341.52	7.35382
2340.16	0
2338.8	7.35123
2337.44	7.34994
2336.08	5.51148
2334.72	0
2333.36	5.50954
2332	5.50857
2330.64	5.5076
2329.27	14.6844
2327.91	16.517
2326.55	0
2325.19	23.8495
2323.82	14.674
2322.46	18.3393
2321.1	3.66721
2319.73	20.1661
2318.37	-3.66592
2317	25.6569
2315.64	9.16157
2314.28	21.9839
2312.91	14.6533
2311.55	16.4821
2310.18	18.3102
2308.81	20.1377
2307.45	7.32151
2306.08	14.6404
2304.72	3.65946
2303.35	-1.82941
2301.98	9.14543
2300.62	9.14382
2299.25	10.9706
2297.88	16.4531
2296.51	7.31118
2295.15	7.30989
2293.78	0
2292.41	12.7878
2291.04	16.4386
2289.67	7.30474
2288.3	7.30345
2286.93	10.9532
2285.56	9.12609
2284.19	10.9494
2282.82	5.47372
2281.45	23.7153
2280.08	5.47179
2278.71	9.11804
2277.34	1.82329
2275.97	-3.64593
2274.6	7.29057
2273.22	21.8678
2271.85	5.46599
2270.48	-3.64335
2269.11	3.64271
2267.73	0
2266.36	1.82071
2264.99	7.28156
2263.61	-5.4602
2262.24	5.45924
2260.87	10.9165
2259.49	-7.27641
2258.12	-3.63756
2256.74	9.0923
2255.37	16.3632
2253.99	18.1782
2252.62	14.54
2251.24	5.45152
2249.87	21.8022
2248.49	0
2247.11	0
2245.74	16.343
2244.36	19.9713
2242.98	18.1525
2241.6	10.8896
2240.23	7.25842
2238.85	5.44285
2237.47	5.44189
2236.09	18.1364
2234.71	29.0132
2233.33	25.382
2231.96	7.25072
2230.58	18.1236
2229.2	1.81204
2227.82	19.9289
2226.44	-3.62279
2225.06	7.24431
2223.68	18.1076
2222.29	14.4835
2220.91	10.8607
2219.53	14.4784
2218.15	14.4758
2216.77	-1.80915
2215.39	5.4265
2214	-7.23405
2212.62	9.04096
2211.24	5.42362
2209.86	12.6529
2208.47	3.61446
2207.09	14.4553
2205.7	7.22637
2204.32	14.4502
2202.94	-1.80595
2201.55	-18.0563
2200.17	9.02656
2198.78	21.6599
2197.4	16.242
2196.01	10.8261
2194.63	1.80403
2193.24	16.2334
2191.85	21.6407
2190.47	14.4246
2189.08	-10.8165
2187.69	3.60486
2186.31	-1.80211
2184.92	7.20717
2183.53	12.6103
2182.14	12.6081
2180.75	3.60167
2179.37	7.20206
2177.98	16.2018
2176.59	7.1995
2175.2	10.7973
2173.81	10.7954
2172.42	25.1849
2171.03	12.5902
2169.64	0
2168.25	5.39388
2166.86	1.79764
2165.47	0
2164.08	14.376
2162.68	1.79668
2161.29	26.9455
2159.9	26.9407
2158.51	3.59145
2157.12	7.18163
2155.72	17.9509
2154.33	5.38431
2152.94	10.7667
2151.54	0
2150.15	17.9381
2148.76	7.17398
2147.36	17.9318
2145.97	0
2144.57	16.1328
2143.18	14.3378
2141.78	21.5028
2140.39	7.16633
2138.99	14.3301
2137.6	14.3276
2136.2	10.7438
2134.8	19.6934
2133.41	10.7399
2132.01	28.6348
2130.61	14.3148
2129.22	17.8904
2127.82	12.521
2126.42	14.3072
2125.02	26.8212
2123.62	5.36329
2122.22	10.7247
2120.83	3.57425
2119.43	8.93404
2118.03	19.6514
2116.63	5.35852
2115.23	8.92927
2113.83	0
2112.43	0
2111.03	10.7094
2109.63	3.56917
2108.22	-1.78427
2106.82	23.1913
2105.42	7.13452
2104.02	1.78331
2102.62	8.91497
2101.21	10.6961
2099.81	-1.78236
2098.41	-5.34613
2097.01	5.34517
2095.6	8.90704
2094.2	10.6865
2092.8	14.2462
2091.39	7.12182
2089.99	16.0212
2088.58	3.55964
2087.18	1.7795
2085.77	7.11674
2084.37	7.11548
2082.96	-5.33566
2081.56	28.4518
2080.15	14.2233
2078.74	5.3328
2077.34	17.7728
2075.93	28.4315
2074.52	24.8731
2073.11	10.658
2071.71	-7.10406
2070.3	7.1028
2068.89	-10.6523
2067.48	12.4255
2066.07	21.297
2064.66	-8.87216
2063.26	17.7412
2061.85	15.9642
2060.44	14.1879
2059.03	14.1853
2057.62	12.4099
2056.21	8.86266
2054.8	-7.08887
2053.38	19.4909
2051.97	0
2050.56	1.77127
2049.15	12.3967
2047.74	14.1651
2046.33	19.4735
2044.91	14.16
2043.5	12.3878
2042.09	0
2040.68	22.9977
2039.26	-1.76874
2037.85	14.1474
2036.43	15.9129
2035.02	-3.53558
2033.61	19.4422
2032.19	14.1373
2030.78	12.3679
2029.36	12.3657
2027.95	1.76621
2026.53	-3.53179
2025.11	8.82789
2023.7	1.76526
2022.28	15.8845
2020.86	17.6463
2019.45	26.4647
2018.03	7.056
2016.61	5.29105
2015.19	8.81685
2013.78	3.52611
2012.36	15.8646
2010.94	8.81211
2009.52	12.3348
2008.1	1.76179
2006.68	10.5689
2005.26	8.80581
2003.84	17.6085
2002.42	10.5632
2001	10.5613
1999.58	3.5198
1998.16	5.27876
1996.74	-7.03708
1995.32	3.51791
1993.9	10.5518
1992.48	5.27498
1991.05	15.8221
1989.63	5.27309
1988.21	17.5738
1986.79	12.2995
1985.36	7.02701
1983.94	3.51287
1982.52	1.75612
1981.09	8.77904
1979.67	12.2884
1978.24	7.02071
1976.82	21.0584
1975.39	-1.75455
1973.97	17.5423
1972.54	21.047
1971.12	8.76803
1969.69	17.5329
1968.27	-3.50595
1966.84	10.516
1965.41	22.7805
1963.99	19.2724
1962.56	19.2689
1961.13	17.5141
1959.7	-12.2576
1958.28	3.50155
1956.85	3.50093
1955.42	5.25045
1953.99	6.99934
1952.56	12.2466
1951.13	-13.9937
1949.7	-5.24668
1948.27	6.99432
1946.84	-15.7344
1945.41	3.4959
1943.98	3.49528
1942.55	15.7259
1941.12	15.7231
1939.69	10.4802
1938.26	3.49277
1936.83	5.23821
1935.39	-1.74576
1933.96	3.49088
1932.53	22.6867
1931.1	8.72407
1929.66	12.2115
1928.23	6.97675
1926.8	12.2071
1925.36	0
1923.93	12.2027
1922.49	17.4293
1921.06	8.71311
1919.62	5.22692
1918.19	-6.96798
1916.75	6.96673
1915.32	10.4482
1913.88	0
1912.45	0
1911.01	22.6256
1909.57	13.9209
1908.14	10.4388
1906.7	-6.95796
1905.26	24.3485
1903.82	-3.47773
1902.39	3.4771
1900.95	12.1677
1899.51	6.95171
1898.07	12.1633
1896.63	6.9492
1895.19	5.21097
1893.75	3.47335
1892.31	8.68182
1890.87	12.1524
1889.43	10.4144
1887.99	3.47085
1886.55	-8.67557
1885.11	10.4088
1883.67	1.73449
1882.23	8.67088
1880.79	3.46773
1879.34	-5.20065
1877.9	8.6662
1876.46	12.1305
1875.02	6.93046
1873.57	8.66151
1872.13	6.92796
1870.69	-5.19504
1869.24	-1.73137
1867.8	8.65527
1866.35	5.19223
1864.91	6.92172
1863.46	20.7614
1862.02	-3.45961
1860.57	3.45899
1859.13	-5.18755
1857.68	1.72887
1856.23	5.18568
1854.79	6.91299
1853.34	-10.3676
1851.89	6.9105
1850.45	0
1849	1.727
1847.55	5.18007
1846.1	8.63189
1844.65	12.0825
1843.21	10.3545
1841.76	8.62722
1840.31	-1.72513
1838.86	-5.17446
1837.41	1.72451
1835.96	-6.89679
1834.51	-1.72389
1833.06	-1.72358
1831.61	5.1698
1830.16	13.7836
1828.7	6.89057
1827.25	1.72233
1825.8	1.72202
1824.35	10.3303
1822.9	13.7712
1821.44	13.7687
1819.99	15.487
1818.54	-5.1614
1817.09	18.9217
1815.63	-5.15953
1814.18	13.7563
1812.72	-8.59612
1811.27	10.3135
1809.81	5.15581
1808.36	3.43658
1806.9	-12.0259
1805.45	8.58835
1803.99	-12.0215
1802.54	-5.15115
1801.08	5.15022
1799.62	-1.71643
1798.17	17.1612
1796.71	5.14742
1795.25	8.57748
1793.8	8.57593
1792.34	0
1790.88	18.8602
1789.42	15.4283
1787.96	8.56973
1786.5	13.7091
1785.04	13.7066
1783.59	15.4171
1782.13	0
1780.67	13.6992
1779.21	20.545
1777.75	-13.6942
1776.28	5.1344
1774.82	8.55578
1773.36	5.13254
1771.9	13.6843
1770.44	15.392
1768.98	3.41983
1767.51	11.9673
1766.05	11.9651
1764.59	0
1763.13	0
1761.66	-3.41674
1760.2	-1.70806
1758.73	3.4155
1757.27	18.7818
1755.81	6.82852
1754.34	1.70682
1752.88	-1.70651
1751.41	-1.7062
1749.95	8.52947
1748.48	-8.52792
1747.01	15.3475
1745.55	5.1149
1744.08	10.2279
1742.61	-3.4087
1741.15	-3.40808
1739.68	13.6298
1738.21	8.5171
1736.74	1.70311
1735.28	15.3252
1733.81	11.9175
1732.34	-3.40437
1730.87	10.2113
1729.4	13.6125
1727.93	6.80503
1726.46	3.4019
1724.99	13.6051
1723.52	11.9023
1722.05	0
1720.58	3.39943
1719.11	13.5953
1717.64	-8.49549
1716.17	13.5903
1714.69	5.09544
1713.22	10.189
1711.75	-6.79146
1710.28	6.79022
1708.8	8.48624
1707.33	11.8786
1705.86	-5.08989
1704.38	22.0522
1702.91	1.69601
1701.43	0
1699.96	13.5632
1698.49	5.08527
1697.01	6.77913
1695.53	13.5558
1694.06	-3.38833
1692.58	1.69386
1691.11	13.5484
1689.63	15.2392
1688.15	1.69293
1686.68	-3.38525
1685.2	0
1683.72	-6.76804
1682.24	-5.07511
1680.77	10.1484
1679.29	10.1465
1677.81	5.07234
1676.33	10.1428
1674.85	10.141
1673.37	21.9681
1671.89	0
1670.41	6.75697
1668.93	3.37787
1667.45	1.68863
1665.97	-3.37664
1664.49	3.37603
1663.01	5.06312
1661.53	6.74959
1660.04	-5.06127
1658.56	-5.06035
1657.08	5.05943
1655.6	0
1654.11	13.4869
1652.63	1.68556
1651.15	20.223
1649.66	-6.73976
1648.18	28.6388
1646.7	6.73731
1645.21	5.05206
1643.73	0
1642.24	-1.68341
1640.76	13.4648
1639.27	5.04838
1637.78	1.68249
1636.3	-10.0931
1634.81	5.04562
1633.33	6.72627
1631.84	0
1630.35	3.36191
1628.86	6.72259
1627.38	1.68034
1625.89	11.7602
1624.4	8.39864
1622.91	-1.67942
1621.42	13.4329
1619.93	5.03642
1618.44	-6.71401
1616.95	8.39098
1615.46	5.03367
1613.97	8.38792
1612.48	1.67728
1610.99	0
1609.5	8.38332
1608.01	18.4399
1606.52	11.7324
1605.03	0
1603.53	6.70176
1602.04	8.37567
1600.55	3.34966
1599.06	13.3962
1597.56	10.0453
1596.07	6.69565
1594.58	6.69442
1593.08	8.3665
1591.59	-1.67299
1590.09	5.01807
1588.6	15.0514
1587.1	18.3928
1585.61	10.0306
1584.11	-1.67147
1582.62	0
1581.12	21.7211
1579.62	10.0233
1578.13	1.67024
1576.63	18.3693
1575.13	10.0178
1573.63	16.6933
1572.14	15.0212
1570.64	6.67487
1569.14	-3.33683
1567.64	1.66811
1566.14	8.33901
1564.64	13.34
1563.14	11.6703
1561.64	0
1560.14	4.99975
1558.64	6.66511
1557.14	-3.33194
1555.64	3.33133
1554.14	0
1552.64	8.32529
1551.14	1.66475
1549.63	16.6445
1548.13	4.99243
1546.63	6.65535
1545.13	8.31767
1543.62	4.98969
1542.12	11.6405
1540.62	14.9636
1539.11	9.97389
1537.61	0
1536.1	3.32341
1534.6	0
1533.09	0
1531.59	9.96476
1530.08	9.96293
1528.58	21.5824
1527.07	0
1525.57	13.2766
1524.06	4.97782
1522.55	13.2717
1521.04	3.31733
1519.54	6.63344
1518.03	0
1516.52	14.9198
1515.01	11.6021
1513.5	-16.5714
1512	-3.31368
1510.49	8.28268
1508.98	-6.62493
1507.47	11.5915
1505.96	14.9006
1504.45	4.96596
1502.94	4.96505
1501.43	0
1499.91	4.96323
1498.4	9.92463
1496.89	-3.3076
1495.38	0
1493.87	-4.95958
1492.35	23.1405
1490.84	0
1489.33	8.26142
1487.82	-8.2599
1486.3	9.91007
1484.79	-1.65137
1483.27	8.25535
1481.76	8.25384
1480.24	3.30093
1478.73	-4.95048
1477.21	0
1475.7	-8.24777
1474.18	13.194
1472.67	8.24474
1471.15	-1.64865
1469.63	8.24171
1468.12	8.2402
1466.6	4.94321
1465.08	6.58974
1463.56	14.8242
1462.05	29.6429
1460.53	3.29305
1459.01	8.23111
1457.49	24.6888
1455.97	8.22809
1454.45	14.8078
1452.93	9.87007
1451.41	3.28942
1449.89	-1.64441
1448.37	11.5087
1446.85	9.86281
1445.33	14.7915
1443.81	4.92959
1442.29	13.1432
1440.76	3.28518
1439.24	-1.64229
1437.72	6.56795
1436.2	19.7002
1434.67	6.56553
1433.15	1.64108
1431.63	1.64078
1430.1	22.9667
1428.58	21.3223
1427.05	-4.91962
1425.53	16.3957
1424	4.9178
1422.48	-1.63897
1420.95	26.2186
1419.43	8.19181
1417.9	1.63806
1416.37	11.4643
1414.85	4.91237
1413.32	6.54862
1411.79	9.82112
1410.27	11.4559
1408.74	3.2725
1407.21	13.0876
1405.68	6.54258
1404.15	0
1402.62	11.4453
1401.09	16.3474
1399.56	1.63444
1398.03	8.17069
1396.5	16.3384
1394.97	-1.63354
1393.44	1.63323
1391.91	9.7976
1390.38	0
1388.85	4.89699
1387.32	-1.63203
1385.79	3.26346
1384.25	-6.52571
1382.72	3.26225
1381.19	6.5233
1379.65	11.4137
1378.12	14.672
1376.59	14.6693
1375.05	14.6666
1373.52	16.2932
1371.98	6.51607
1370.45	3.25744
1368.91	8.14209
1367.38	19.5374
1365.84	11.3947
1364.31	4.88254
1362.77	11.3905
1361.23	19.523
1359.7	9.75968
1358.16	-4.87894
1356.62	-1.62601
1355.08	8.12856
1353.55	16.2541
1352.01	6.50044
1350.47	-4.87443
1348.93	1.62451
1347.39	6.49684
1345.85	3.24782
1344.31	6.49443
1342.77	11.3632
1341.23	-3.24602
1339.69	14.6044
1338.15	-4.86722
1336.61	12.9769
1335.07	9.73084
1333.52	25.9441
1331.98	22.6969
1330.44	6.48363
1328.9	4.86182
1327.35	6.48123
1325.81	0
1324.27	14.5774
1322.72	-3.23881
1321.18	-6.47643
1319.64	0
1318.09	-6.47403
1316.55	4.85463
1315	9.70745
1313.46	-1.61761
1311.91	6.46924
1310.36	11.3191
1308.82	11.317
1307.27	4.84923
1305.72	22.6256
1304.18	14.5423
1302.63	3.23102
1301.08	0
1299.53	3.22983
1297.98	20.99
1296.44	11.3002
1294.89	9.6841
1293.34	6.45487
1291.79	-9.6805
1290.24	-3.22624
1288.69	-3.22564
1287.14	9.67512
1285.59	14.51
1284.04	9.67153
1282.49	3.22325
1280.93	8.05662
1279.38	-3.22205
1277.83	-3.22145
1276.28	9.66256
1274.72	-6.44051
1273.17	1.60983
1271.62	-1.60953
1270.06	6.43693
1268.51	6.43573
1266.96	1.60863
1265.4	6.43335
1263.85	17.6884
1262.29	-4.82322
1260.74	6.42976
1259.18	-11.25
1257.63	-8.03422
1256.07	11.2458
1254.51	8.03123
1252.96	6.42379
1251.4	12.8452
1249.84	11.2375
1248.29	-8.02527
1246.73	11.2333
1245.17	11.2312
1243.61	-4.81248
1242.05	-11.227
1240.49	3.20713
1238.93	1.60326
1237.37	3.20593
1235.81	11.2187
1234.25	6.40948
1232.69	1.60207
1231.13	-1.60177
1229.57	-1.60148
1228.01	14.4106
1226.45	8.00441
1224.89	11.2041
1223.32	1.60029
1221.76	14.3999
1220.2	3.19938
1218.64	7.99696
1217.07	9.59457
1215.51	12.7904
1213.95	3.197
1212.38	0
1210.82	14.3811
1209.25	3.19522
1207.69	1.59731
1206.12	11.1791
1204.56	0
1202.99	7.98209
1201.42	-3.19224
1199.86	6.38329
1198.29	6.38211
1196.72	1.59523
1195.15	11.1645
1193.59	7.97317
1192.02	7.97169
1190.45	3.18808
1188.88	6.37497
1187.31	-3.18689
1185.74	-4.77945
1184.17	7.96426
1182.6	-4.77767
1181.03	4.77678
1179.46	4.77589
1177.89	3.18333
1176.32	-7.95684
1174.75	-6.36429
1173.18	-12.7262
1171.61	3.18096
1170.04	-4.77055
1168.46	6.35954
1166.89	-3.17918
1165.32	7.94646
1163.74	14.301
1162.17	9.5322
1160.6	3.17681
1159.02	14.293
1157.45	6.35124
1155.87	6.35005
1154.3	7.93609
1152.72	4.76076
1151.15	7.93312
1149.57	0
1147.99	1.58603
1146.42	19.0288
1144.84	19.0253
1143.26	1.58514
1141.69	25.3576
1140.11	6.33821
1138.53	0
1136.95	7.9198
1135.37	-4.75099
1133.79	4.75011
1132.22	1.58307
1130.64	12.6622
1129.06	-7.9124
1127.48	17.404
1125.9	4.74567
1124.32	3.16319
1122.73	6.32519
1121.15	15.81
1119.57	11.0649
1117.99	17.3845
1116.41	9.4807
1114.82	1.57982
1113.24	6.3181
1111.66	20.53
1110.08	20.5261
1108.49	6.31456
1106.91	-1.57834
1105.32	4.73414
1103.74	0
1102.15	4.73237
1100.57	7.88581
1098.98	1.57687
1097.4	4.72972
1095.81	17.339
1094.23	0
1092.64	4.72706
1091.05	9.45235
1089.47	-1.5751
1087.88	6.29921
1086.29	1.57451
1084.7	-9.44527
1083.11	1.57392
1081.52	7.86811
1079.94	1.57333
1078.35	1.57303
1076.76	-1.57274
1075.17	15.7244
1073.58	12.5772
1071.99	7.85927
1070.4	12.5725
1068.8	-9.42759
1067.21	10.9968
1065.62	-3.14135
1064.03	-14.1334
1062.44	12.5607
1060.84	12.5583
1059.25	-1.5695
1057.66	-3.13841
1056.07	-4.70673
1054.47	-7.84308
1052.88	7.84161
1051.28	-4.70408
1049.69	10.9741
1048.09	9.40464
1046.5	20.3729
1044.9	4.70055
1043.31	4.69967
1041.71	-1.56626
1040.11	17.2257
1038.52	10.9597
1036.92	7.82691
1035.32	0
1033.73	7.82397
1032.13	9.387
1030.53	17.2063
1028.93	4.69174
1027.33	18.7634
1025.73	12.5066
1024.13	15.6303
1022.53	20.3156
1020.93	14.062
1019.33	18.7458
1017.73	12.4949
1016.13	17.1772
1014.53	31.2254
1012.93	21.8537
1011.33	15.6068
1009.72	43.6909
1008.12	15.601
1006.52	17.1578
1004.92	29.6307
1003.31	28.0659
1001.71	28.0606
1000.11	28.0554
